# erpr for CRN98con found by binary search
#   BCL (ms)	  ERP (ms)	     ratio	    S1 Amp	    S2 Amp	 APD count
      1024	   327.969	  0.800069	   105.693	   84.5621	         9
       768	   326.969	  0.800025	   105.247	      84.2	         9
       704	   326.453	   0.80002	   105.066	   84.0548	         9
       672	   326.016	  0.800067	   104.962	   83.9768	         9
       640	   325.344	  0.800017	   104.848	   83.8802	         9
       608	   324.359	   0.80004	   104.721	   83.7806	         9
       592	   323.703	  0.800075	   104.645	   83.7236	         9
       576	   322.906	  0.800059	   104.564	   83.6571	         9
       560	   321.969	  0.800062	   104.477	   83.5879	         9
       552	   321.438	  0.800036	   104.437	   83.5537	         9
       544	   320.875	  0.800093	   104.396	   83.5263	         9
       536	   320.234	  0.800049	   104.339	   83.4759	         9
       528	   319.547	  0.800008	   104.292	   83.4342	         9
       520	   318.797	  0.800038	   104.228	   83.3864	         9
       512	   317.984	  0.800035	   104.174	   83.3427	         9
       504	   317.062	  0.800032	   104.101	   83.2844	         9
       500	   316.578	  0.800068	    104.07	   83.2627	         9
       496	   316.047	  0.800031	   104.036	   83.2322	         9
       492	     315.5	  0.800094	   104.001	   83.2103	         9
       488	   314.875	   0.80002	    103.95	   83.1622	         9
       484	    314.25	  0.800085	   103.911	   83.1375	         9
       480	   313.562	  0.800065	   103.869	   83.1017	         9
       476	   312.812	  0.800006	   103.824	   83.0594	         9
       472	       312	       0.8	   103.763	   83.0101	         9
       468	   311.156	  0.800064	   103.711	   82.9756	         9
       464	   310.234	  0.800056	   103.656	   82.9305	         9
       462	    309.75	  0.800099	   103.626	   82.9114	         9
       460	   309.219	  0.800022	   103.583	   82.8687	         9
       458	   308.703	  0.800064	   103.552	   82.8479	         9
       456	   308.156	  0.800048	   103.519	   82.8202	         9
       454	   307.594	  0.800025	   103.485	   82.7906	         9
       452	   307.016	  0.800055	   103.449	   82.7653	         9
       450	   306.422	  0.800073	   103.413	   82.7376	         9
       448	   305.797	  0.800036	   103.374	   82.7029	         9
       446	   305.172	  0.800073	   103.321	   82.6644	         9
       444	   304.516	  0.800071	   103.279	   82.6309	         9
       442	   303.844	  0.800057	   103.236	   82.5948	         9
       440	   303.141	  0.800006	   103.191	   82.5534	         9
       438	   302.438	  0.800019	   103.144	    82.517	         9
       436	   301.719	  0.800048	   103.094	   82.4803	         9
       434	   300.969	  0.800077	    103.03	   82.4317	         9
       432	   300.203	   0.80003	   102.976	   82.3841	         9
       430	   299.438	  0.800061	    102.92	   82.3425	         9
       428	   298.641	  0.800015	   102.862	    82.291	         9
       426	   297.844	   0.80001	   102.801	   82.2415	         9
       424	   297.031	  0.800018	   102.737	   82.1911	         9
       422	   296.203	  0.800059	   102.657	   82.1314	         9
       420	   295.359	  0.800009	   102.587	   82.0705	         9
       418	   294.516	  0.800032	   102.514	   82.0146	         9
       416	   293.656	  0.800004	   102.438	   81.9507	         9
       414	   292.812	  0.800004	   102.358	   81.8869	         9
       412	   291.953	  0.800066	   102.274	   81.8263	         9
       410	   291.047	  0.800002	   102.174	   81.7394	         9
       408	   290.172	  0.800049	   102.083	   81.6712	         9
       406	   289.281	  0.800047	   101.987	   81.5946	         9
       404	   288.375	  0.800001	   101.887	   81.5096	         9
       402	   287.484	  0.800023	   101.782	    81.428	         9
       400	   286.578	  0.800015	   101.672	   81.3393	         9
       398	   285.656	  0.800018	   101.544	   81.2374	         9
       396	    284.75	  0.800038	   101.424	   81.1433	         9
       394	   283.844	  0.800038	   101.299	   81.0428	         9
       392	   282.953	  0.800062	   101.167	   80.9399	         9
       390	   282.031	  0.800032	   101.029	   80.8263	         9
       388	   281.125	  0.800076	   100.884	   80.7152	         9
       386	   280.188	  0.800014	    100.72	   80.5778	         9
       384	   279.281	  0.800053	   100.563	   80.4555	         9
       382	   278.375	  0.800096	   100.397	   80.3275	         9
       380	   277.453	  0.800019	   100.224	   80.1813	         9
       378	   276.547	  0.800042	   100.043	   80.0389	         9
       376	   275.656	  0.800146	   99.8534	   79.8973	         9
       374	   274.734	  0.800027	   99.6429	    79.717	         9
       372	   273.828	  0.800013	   99.4362	   79.5503	         9
       370	   272.938	  0.800067	   99.2201	   79.3828	         9
       368	   272.031	  0.800022	   98.9943	   79.1976	         9
       366	   271.141	  0.800039	   98.7584	   79.0105	         9
       364	   270.234	  0.800007	   98.4988	   78.7997	         9
       362	   269.375	  0.800075	   98.2422	   78.6012	         9
       360	     268.5	  0.800102	   97.9743	   78.3894	         9
       358	   267.625	   0.80009	    97.695	   78.1649	         9
       356	    266.75	  0.800055	   97.4038	   77.9284	         9
       354	   265.875	  0.800051	   97.0884	   77.6756	         9
       352	   265.016	  0.800016	   96.7724	   77.4194	         9
       350	   264.188	  0.800017	   96.4445	   77.1572	         9
       348	   263.359	  0.800058	   96.1038	   76.8886	         9
       346	   262.531	  0.800061	     95.75	   76.6059	         9
       344	   261.703	  0.800052	   95.3713	    76.302	         9
       342	   260.906	  0.800009	   94.9913	   75.9939	         9
       340	   260.125	  0.800075	   94.5969	   75.6846	         9
       338	   259.359	  0.800089	   94.1905	   75.3608	         9
       336	   258.578	  0.800014	   93.7595	   75.0089	         9
       334	   257.859	  0.800022	   93.3274	   74.6639	         9
       332	   257.156	  0.800094	   92.8833	   74.3153	         9
       330	   256.469	  0.800068	   92.4261	   73.9471	         9
       329	   256.125	  0.800093	   92.1826	   73.7547	         9
    328.75	   256.031	  0.800004	   92.1243	   73.6998	         9
     328.7	   256.016	  0.800011	   92.1126	   73.6911	         9
    328.67	   256.016	  0.800073	   92.1056	   73.6913	         9
    328.66	   256.016	  0.800094	   92.1033	   73.6913	         9
