0.0      0      0      0      0      0      0      0      0      0      0      0      0
1.0 -0.00355538225915824 -0.00465137152787675 -0.00109598926871851 0.0041033793194855 -0.00122969406925186 -0.00287368039829763 0.00750667279258146 0.000491932939771219 -0.00231181165292756 -0.00301725403666837 -0.00305105747482621 -0.00306003355643839
2.0 -0.0114935948479079 -0.0146328851338269 -0.00313925632236694 0.0130632654994513 -0.00417718014370664 -0.00888606345019289 0.0236470877935784 0.000979172631065892 -0.00757198390117617 -0.00959713231438714 -0.00964510173751201 -0.00963458464142645
3.0 -0.0234463902192418 -0.0269468633347006 -0.0035004798904849 0.0251966156492734 -0.00997297289579405 -0.0152236799957212 0.0479779516501765 0.00175563152555869 -0.0138151233299702 -0.0172311527484075 -0.0173862192349017 -0.0173353908455128
4.0 -0.0316186078194073 -0.0334728806114006 -0.0018543146101146 0.0325457384867939 -0.0148821263786797 -0.0176636312806586 0.0653254415490502 0.00264458309274908 -0.0167935699667777 -0.0208277217588159 -0.0211303033604487 -0.0210567331655387
5.0 -0.0421068885328264 -0.0487770121286623 -0.00667014512407231 0.0454419231219392 -0.01771836129192 -0.0277235717001678 0.0551882229718076 -0.0176199075903261 -0.0335799730987527 -0.034642531554395 -0.0325960572652117 -0.0314016268721826
6.0 -0.0360411492592785 -0.0401932036578706 -0.00415208974114593 0.0381171867109876 -0.0159445122688268 -0.0221726310040164 0.0424804091924777 -0.0196904190789968 -0.0303458796865193 -0.0298493857022234 -0.0274831078361227 -0.026171614973758
7.0 -0.0194893279048623 -0.0130934896280993 0.00639582008219009 0.0162914091925526 -0.0129425698413749 -0.0033488024331349 0.0324123949218909 -0.00570702836036767 -0.0102989999860201 -0.00954054705794781 -0.00875865815556975 -0.00819562147844523
8.0 -0.00674304073144963 0.00408216472537658 0.0108251912382076 0.00133046005609306 -0.00878410656937059 0.00745369463053823 0.0216132493384698 0.00344242668559082 0.00229890629020375 0.0028293895843249 0.00267534541552868 0.00273225885230065
9.0 -0.00290354815259536 0.0105454943141245 0.013449025443012 -0.00382096172770992 -0.00817628680260163 0.0119972927091293 0.0167303340414572 0.00429287078501842 0.00540457410475343 0.00679915163980807 0.00667501682722966 0.00678364538239601
10.0 -0.00153171562212458 0.0122835090697922 0.013815188708642 -0.00537588022920909 -0.00767345796591686 0.01304934153092 0.0119390501260055 0.00253256279087776 0.00506932274284263 0.00735283437351066 0.00760372258572115 0.00791230497667874
11.0 -0.00255565576526251 0.0113653728186618 0.0139210149114402 -0.00440484275725727 -0.00823833589853513 0.0126431658172725 0.00688502607167757 -0.00187476256192002 0.00216136790817202 0.00573695803968763 0.00669742335254056 0.00738268948722774
12.0 -0.00588687578364824 0.00857332972801422 0.0144602033249162 -0.00134321642800514 -0.0101735616763804 0.0115167569392253 0.00282299685683706 -0.0084835057224804 -0.00240018356540936 0.00289993302827633 0.00477507982816602 0.00595913171169076
13.0 -0.00925578078007645 0.00583252943309457 0.0150883333471001 0.00171163837960518 -0.012172092711866 0.0104604240285569 0.00370579843440496 -0.0124964421782924 -0.00604162288360252 0.000410951462768177 0.00297027616355488 0.00454790647818728
14.0 -0.0123811161647393 0.00363445228715616 0.0160155706575182 0.0043733433319165 -0.0141983617630903 0.00982501738644106 0.00833910696414591 -0.0148614979200626 -0.0087465661042938 -0.00138700691323619 0.0016925594931285 0.0035926202104846
15.0 -0.0148140631128511 0.00461867124831355 0.0194327549043774 0.0050976969455864 -0.0171234184563215 0.012025701565156 0.0157705713696663 -0.0154085061946168 -0.00915495059620342 -0.000689874045716859 0.00270635235989034 0.00487262390206291
16.0 -0.0168256936785881 0.00822081100909346 0.0250465152634589 0.00430244185640971 -0.0209361093347636 0.0166336814699222 0.0251233711846464 -0.0149611061698616 -0.00769455638443657 0.00216549225711186 0.00572170814457644 0.00811423927029163
17.0 -0.0175199117495183 0.0124957009248699 0.030015618118866 0.00251211053281533 -0.0237677916977567 0.0212556932198263 0.0331805586175597 -0.0152029721862123 -0.00627486710735125 0.00510503173962659 0.00888574870149153 0.0115159125508112
18.0 -0.0185216367566459 0.0170721920756161 0.035593831635114 0.000724729828512482 -0.0270577479739343 0.0263330534629697 0.0398172023239363 -0.0175972220230914 -0.00584491420162276 0.00779711303301423 0.0121077987350897 0.015147871678324
19.0 -0.0198971912997822 0.0190634304575772 0.0389606232002856 0.000416903829273697 -0.0294289143430645 0.0290120239891125 0.0443840374432114 -0.0233811557317133 -0.00836330469530203 0.00795875866141038 0.0132987070416313 0.0169433443390552
20.0 -0.020578310297676 0.0201542764521152 0.0407325874926189 0.000212019153138253 -0.030655476806365 0.0304434305104101 0.0508277784476246 -0.0290132560074816 -0.0113940642436822 0.00726277820235752 0.0136513423340352 0.0178631528541569
21.0 -0.0212362763431619 0.0205012498212288 0.0417375265468032 0.000367504705297041 -0.031486915813856 0.0311193874313912 0.0593955315825598 -0.0323275863191053 -0.0141011707679305 0.00613688247229907 0.0134007678184524 0.0180659381347333
22.0 -0.0212070306471887 0.023196476099943 0.0444035554633602 -0.000994722278954586 -0.0328053247121424 0.0337999911345155 0.0715939141311289 -0.0339223272836308 -0.01565428966685 0.0061197879022042 0.0141588013950415 0.0192482393980883
23.0 -0.0186189445920986 0.0299703725936053 0.04858934226513 -0.00567571377041733 -0.0336041354660925 0.0392798690005443 0.0857882945814077 -0.0316430200679763 -0.0138460266501357 0.00894473647308883 0.0172798570737694 0.0225659256043279
24.0 -0.0145599873706325 0.0390707741036757 0.0536307258659972 -0.0122554175076232 -0.0340953282594776 0.0463507559417522 0.0943183403455635 -0.0312208918985501 -0.0119274660358742 0.0126476678174419 0.0214603544839319 0.027046530525269
25.0 -0.00642294747589234 0.051072001861324 0.057494940709702 -0.0223245347687734 -0.0319589100857423 0.0542834500924913 0.0916666892231978 -0.0318900263239893 -0.00953344510261962 0.0170849244683115 0.0264983358011099 0.0323957751618591
26.0 0.00424745322477927 0.0665823788678986 0.0623349212016197 -0.0354149442062219 -0.0290437164813707 0.064458663384136 0.0778375123686365 -0.0286296581134161 -0.00379059898268809 0.0241483610348236 0.0336534684595452 0.0396035807477422
27.0 0.0193713000878498 0.0830312284931289 0.0636598775994066 -0.0512012302680172 -0.0221442554833572 0.0733455356589323 0.0640829955791977 -0.0159688376915704 0.00655819187087496 0.0330810852447535 0.0416103676974041 0.047015213455027
28.0 0.035076580224287 0.101603358275715 0.0665268974543197 -0.0683400002543746 -0.015725151190033 0.0840651916929459 0.0635643742843992 0.00542390016211377 0.0217493648548785 0.0451032194410105 0.0516359387408148 0.0560343737306469
29.0 0.0512191264713109 0.119836759955361 0.0686177434727834 -0.0855279834342661 -0.0086992901224993 0.0942274786505387 0.0550231841735396 0.0219822476511956 0.0357672557817593 0.056981186026707 0.0618976675592176 0.0654435033771307
30.0 0.0661191179876494 0.137963224150469 0.0718439687082829 -0.102041070476651 -0.00286242560295476 0.104903446401241 0.0372812630152531 0.0349489749893675 0.0499334747945806 0.0698208710606741 0.0731829468150641 0.0759021409169138
31.0 0.0780708347058074 0.156325752404602 0.0782547498975989 -0.117197999172789 -9.19674246793395e-05 0.117290222435016 0.0213172033662992 0.0471776125579123 0.0638535458688889 0.0830576943182032 0.084879583270479 0.0868812759374203
32.0 0.0862104257114117 0.171343584863873 0.0851332668447727 -0.128777144853851 0.000538593781142802 0.128238508109819 0.0140790108193351 0.0588117726989133 0.0753118071673786 0.0937097829419023 0.0941115641046971 0.095514191790859
33.0 0.0936822006090934 0.184487195733492 0.0908049535263694 -0.139085012617671 0.0014387376703054 0.137646165494947 -0.00265983401732031 0.0653070241578755 0.0840877429417154 0.102699555290095 0.102308151094226 0.103381512969832
34.0 0.100062884317099 0.196326795008113 0.0962638892760816 -0.148195001541614 0.00189945438416319 0.146295631516789 -0.0252178265490101 0.0668260565615692 0.0903316785535387 0.110148463217798 0.109506410043637 0.110504876525014
35.0 0.106408787548709 0.208298076177901 0.101889277604648 -0.157353515199654 0.00225983465582006 0.155093825863218 -0.0502790820481514 0.0673871555174188 0.0968198433453045 0.117986541086118 0.117120354268216 0.118035626310101
36.0 0.113075450701758 0.217624915802321 0.104548974231457 -0.165350226154125 0.00426331807236333 0.161087021708599 -0.0854026921841523 0.0630328071309766 0.100015404407094 0.123046362615859 0.122479145698813 0.123497631984657
37.0 0.117335717031528 0.226192990448517 0.108857020714432 -0.171764375826291 0.0042393552957038 0.167525045062858 -0.117737598663088 0.0560448998763146 0.101708048664056 0.127604095361547 0.127676468856931 0.129027076816446
38.0 0.122623494185991 0.234721728195203 0.112098103916318 -0.17867286515755 0.00526277158813029 0.173409936381029 -0.137301284561324 0.05817126089121 0.107349371047419 0.133651016937736 0.133426270731947 0.134650433377225
39.0 0.130456219899135 0.238042039882454 0.107586238204266 -0.184249260634607 0.0114350302060792 0.172814149506939 -0.160278945033956 0.0586227039925969 0.109865890224199 0.135559760344644 0.135430959332458 0.136511910951094
40.0 0.13846180761634 0.239366599061539 0.100905006748019 -0.188914270646691 0.0187783236575228 0.170135808291496 -0.192656911062244 0.0519811294528063 0.108834907085317 0.135032471179974 0.135624086117151 0.136783662573422
41.0 0.144328376785218 0.241528331085246 0.0972000651392982 -0.192928145988893 0.0235640192591351 0.169363958288588 -0.214473199274264 0.0487778670109485 0.109607380379174 0.136462593301206 0.137514843795425 0.138783794312551
42.0 0.148696391958166 0.24883906761952 0.100142732722119 -0.198767380139936 0.0242767107947326 0.174491019304852 -0.225661667018841 0.0515747815280187 0.115511031554441 0.143432596702311 0.144306659606897 0.145527599966332
43.0 0.151144973885093 0.256364872750769 0.105219928240922 -0.203754985913237 0.0229624616510949 0.180792704423609 -0.234133794040259 0.0566424435719392 0.122894692459243 0.1518606052232 0.152213054486176 0.153280702605023
44.0 0.153783469356258 0.26459236237764 0.110809393337549 -0.209187705494613 0.021487006518137 0.187701034321552 -0.240928545154223 0.062651981849504 0.130698695549035 0.160618541258255 0.160393877350528 0.161254518532378
45.0 0.159193635468543 0.275103420718985 0.115910042816406 -0.217148419792739 0.0216418771529087 0.195506812316342 -0.255435569308559 0.0633079724040982 0.13655658560744 0.168553134788376 0.168286095967571 0.169138177760879
46.0 0.164408673156746 0.284013797064911 0.119605741698372 -0.224211179356768 0.0224015558587216 0.2018095682518 -0.269380242360203 0.0625352179456851 0.139802731856461 0.173978019038876 0.174082172158181 0.175103061638929
47.0 0.16813851494726 0.289916760873324 0.121778563968416 -0.229027609207745 0.0231799248499631 0.20584755887794 -0.276375160909271 0.0630289907659432 0.141252620436756 0.177089071168755 0.177719099858666 0.178991373247789
48.0 0.170771410768916 0.294110890380145 0.123339158147867 -0.232441135798276 0.0237161487603673 0.208724970959443 -0.275926278756514 0.0657974128928834 0.142039788618681 0.178871637926948 0.179967923746931 0.181493335548944
49.0 0.172438336678328 0.295281230531785 0.122842728362061 -0.233859775998146 0.0247976701573761 0.209062194602193 -0.275465694778613 0.0671712323176022 0.140165103106601 0.177929082436397 0.179821432277033 0.181733343575069
50.0 0.173964107198227 0.294130239458477 0.12016604706422 -0.234047169412266 0.0268989610825562 0.207148496621459 -0.275027713048682 0.0707566032687314 0.139337797990816 0.176397771435108 0.178482088201167 0.180393557343227
51.0 0.173672939025939 0.293598836282036 0.119925853396636 -0.233635643041161 0.0268734587816563 0.206762526751382 -0.268946920878578 0.0712600870821667 0.136759092016882 0.174043237789337 0.176486444127018 0.178597585407825
52.0 0.171976731782262 0.293563496584096 0.121586742222703 -0.23276974565813 0.0251948544803361 0.207574970456085 -0.267766483237384 0.0655358762879729 0.132399582868967 0.172004824099108 0.175435784494006 0.178164023486307
53.0 0.167570818832216 0.29254531947049 0.124974489014392 -0.230057636835499 0.0212980926818605 0.20875982756341 -0.281896056812062 0.0496867477112402 0.124069011134976 0.168766242160702 0.174367492747486 0.178313936913504
54.0 0.159105248789383 0.289792175975319 0.130687406395487 -0.224448489823383 0.0142088403465756 0.210239751710547 -0.300968019301881 0.0218099456439859 0.110486447556174 0.162770587342547 0.171540030558525 0.177246541601221
55.0 0.151419176250342 0.284487954150826 0.133069024600628 -0.217953450625803 0.00917500509095185 0.208778469053819 -0.335422092713063 -0.0216255780202965 0.0896173743694377 0.152729705995684 0.16642025285758 0.174616044310607
56.0 0.149054257125196 0.277146512024994 0.128092381902611 -0.213100325591265 0.0104807556389456 0.202619679098755 -0.381243731375427 -0.0600487491918621 0.0713771641401629 0.143609664533127 0.162082014189216 0.172465159579667
57.0 0.150779480813637 0.277354896842027 0.126575481410251 -0.214067158462578 0.0121019545405242 0.201965308630698 -0.415115226972291 -0.0897815347306926 0.0604146688064977 0.140878187327802 0.163053364893217 0.175070571788167
58.0 0.15582429058558 0.28645669364836 0.130632436721781 -0.221140233887943 0.0125959522020009 0.208544384109982 -0.434578658137187 -0.112349570423792 0.0568811159865127 0.144875606513373 0.169493647704498 0.18254809813355
59.0 0.161151090136941 0.296785643659024 0.135634570849952 -0.228968233960027 0.0127584182107845 0.216209771439074 -0.444890158408022 -0.128159327135262 0.0579074382534311 0.151337605804131 0.177140954975993 0.190661457909984
60.0 0.165884109977494 0.306107356009228 0.140223254952233 -0.235995664556051 0.0128305091440862 0.223165132600806 -0.452295106282707 -0.140406910472738 0.0589401542721118 0.157207669246205 0.184097682667589 0.19806383450023
61.0 0.170937347967971 0.312452059991635 0.141514231422392 -0.241694426151037 0.0147115517778254 0.226983056707322 -0.454534223182055 -0.148219541268589 0.0607700356045124 0.162603667758748 0.190271925203618 0.204467499941145
62.0 0.173263197257693 0.310120675632915 0.136857230958612 -0.241691793417278 0.0182031738833317 0.223488664881353 -0.451050424842825 -0.154414715735336 0.0577392565029202 0.161195797130968 0.189861972901788 0.204423589948841
63.0 0.176199008027105 0.301586762771774 0.125387627373015 -0.238892811767696 0.025405788518021 0.21348704659481 -0.438972294410623 -0.155192133806986 0.0550154007333305 0.157043608727292 0.185858653650637 0.200195326673304
64.0 0.181444432149119 0.292006245034797 0.110562086949455 -0.236725058089065 0.0354411503701349 0.201283919737155 -0.425294058768321 -0.154302223821086 0.0544996395800237 0.154062283894262 0.182324671509938 0.195927405262119
65.0 0.186989500135053 0.281089755324275 0.0941002022015684 -0.23403948332498 0.0464446860421122 0.187594706431207 -0.408624233716498 -0.14649632057714 0.0578140749008649 0.152826358049707 0.179501004135384 0.19178219970111
66.0 0.190224043208313 0.264179421475635 0.0739550598727782 -0.227201415404718 0.0581345592737652 0.169066760840577 -0.389664209985833 -0.135758345458999 0.0615585201725233 0.150579252761633 0.175184234663867 0.185909804658645
67.0 0.191486010799228 0.245238229195864 0.053752297081888 -0.218361956836218 0.06886677036427 0.149495137415853 -0.369662001914921 -0.127229929925737 0.0643031535451467 0.148014881943828 0.170840182499769 0.180169573947635
68.0 0.1891177755947 0.225081720239359 0.0359639851523306 -0.207099663920534 0.076576947732034 0.130523030569628 -0.348853988227991 -0.123154822873394 0.0657403680492535 0.144793253715558 0.166115763862441 0.174140764983739
69.0 0.185190727470989 0.204970096036554 0.0197794864578934 -0.195080125915037 0.082705550500749 0.112374834298425 -0.336619837299101 -0.134445363901403 0.0591326774622691 0.137080978331933 0.159103860518163 0.166924594589537
70.0 0.181421390616808 0.194651922328638 0.0132308301484188 -0.188036509321114 0.0840951689897535 0.103941473606571 -0.322689522772042 -0.141141829415054 0.0601108872157187 0.137009665385843 0.158747310897374 0.165987397255628
71.0 0.180222772898407 0.189014010374639 0.00879123585134542 -0.184618558478733 0.0857157791812847 0.0989027023502994 -0.312504570254979 -0.146701745651719 0.0630448106023895 0.139799690942275 0.161436588180405 0.168223461815173
72.0 0.180240835249871 0.187684574875127 0.00744378245617849 -0.183962790953937 0.0863986022365983 0.0975642946625339 -0.303461255241847 -0.148327752815682 0.0680605428243409 0.145622164103002 0.167303263818194 0.173820916316198
73.0 0.178875095199727 0.187996275434617 0.00912120228452352 -0.183435486937834 0.0848769369810312 0.0985587500561471 -0.293577252561131 -0.149473414839085 0.0722666653703496 0.152724833601309 0.175251577381275 0.181930967954043
74.0 0.17728361399927 0.185234905014159 0.00795110828874031 -0.181259157379761 0.0846662964960259 0.0965929638961586 -0.285654888908541 -0.153474605186443 0.0726827842043588 0.157017422121911 0.181355032735854 0.188545142666707
75.0 0.174882578154697 0.183240320208376 0.00835733746118354 -0.179061639202728 0.083262730148148 0.0957987680085942 -0.279114047878935 -0.158616878527229 0.0702428017699534 0.158794966663872 0.185314681827598 0.193309674604196
76.0 0.172486411637688 0.184301768443561 0.0118153425965072 -0.17839418786475 0.0803355425276893 0.0980584271676044 -0.270409651452576 -0.158425771186381 0.0708161056697209 0.162255383598242 0.190137175399752 0.198662488286618
77.0 0.170506622023031 0.184851119949208 0.0143447817272653 -0.177678921346605 0.0780808272312685 0.0995977392035044 -0.260966497515947 -0.153429843699308 0.0731544934771802 0.164822356819911 0.193004099283203 0.201558857169004
78.0 0.170018700652776 0.187384742733256 0.0173664792992576 -0.178701747618916 0.0763259658039712 0.102375599104063 -0.250401650663665 -0.146379571324241 0.076924499438484 0.168378652785998 0.196677451862211 0.205163429728978
79.0 0.170735962035906 0.191205281969016 0.0204691568612536 -0.18097063534928 0.075133376525248 0.105837164763301 -0.241962847863173 -0.142669018657143 0.0802071740549003 0.17346607615491 0.202459769954201 0.211041826892801
80.0 0.170305128538457 0.195007607407811 0.0247025889963591 -0.182656374844162 0.0728012078347643 0.109854973028251 -0.234374978958296 -0.140693786456538 0.0834391582560002 0.179468854432377 0.209247740044157 0.217963682790294
81.0 0.168583114083685 0.198793763556964 0.0302110458028865 -0.183688684954374 0.0691859294761633 0.114502655615475 -0.228402255943495 -0.141777812570329 0.0836581949012589 0.18354164014478 0.214722790762894 0.223931717986508
82.0 0.166296341291109 0.202562376973923 0.0362660941577517 -0.1844297284407 0.0650151909832607 0.119414437528104 -0.222983004435599 -0.141540643839284 0.0841709014529508 0.187286538954109 0.219740764501405 0.229436861410716
83.0 0.165494150676959 0.2037509183902 0.0382570889326736 -0.184622482058996 0.0636184685399105 0.121004204671625 -0.218503694962199 -0.140361796196585 0.0849069394401867 0.189943197614228 0.223401664480781 0.233384463788304
84.0 0.166227690293658 0.202638894254045 0.0364114663649263 -0.1844335078564 0.0649080798753337 0.119525235271456 -0.217927918160607 -0.14371846441005 0.0808582223033692 0.188849960550786 0.224365906957067 0.235091149848302
85.0 0.165110439698878 0.201917947870728 0.0368077888174663 -0.183514304768078 0.0641512361420265 0.119363066456631 -0.218421884954027 -0.14905925023731 0.0761489223939299 0.188108603869487 0.225793391674039 0.237355960870737
86.0 0.159121481746873 0.202566191813996 0.043444806025922 -0.180844136512136 0.0578383646679842 0.12300586776604 -0.216093011490438 -0.154541331317604 0.0707706375039637 0.187684251668901 0.227255089955084 0.23977078840648
87.0 0.147850685856687 0.202687882340838 0.0548373429230752 -0.17526968099936 0.0465067337868428 0.128762753996919 -0.207369224975519 -0.157230598692871 0.0611325395463682 0.182526036392165 0.223815023680787 0.237916966322187
88.0 0.137287203203484 0.203155666059345 0.0658685867629157 -0.170221396361582 0.0357092675239981 0.134511932330237 -0.197940833770849 -0.156091073636576 0.0538529181712499 0.177996251279175 0.22031967749188 0.235785041981155
89.0 0.130183385103219 0.202589607153246 0.072406625473692 -0.166386233829877 0.0288882375656549 0.137498331775224 -0.190827005851321 -0.152693227123172 0.0500837799066836 0.174545432472247 0.217087474203172 0.233251340629531
90.0 0.125488464973634 0.202985230544513 0.0774971673334041 -0.164236712726202 0.0239955270700035 0.140241455418129 -0.184397217416376 -0.147003251569545 0.0507342887162344 0.174255076866287 0.216183813638402 0.23232785193621
91.0 0.122164178013294 0.201306348827514 0.0791426687602992 -0.161735193904617 0.0215106434294007 0.140224737869745 -0.178679105343586 -0.140237104748435 0.0532038810990348 0.174326363030553 0.214828758333219 0.230221698355357
92.0 0.120545970984188 0.194665334766429 0.0741193775312689 -0.157605617088137 0.0232132637411627 0.134392352780156 -0.172547662700036 -0.130868450690058 0.0573492388356046 0.173753658441675 0.211862887107572 0.225784264039788
93.0 0.119843424728721 0.184382464361153 0.0645389981911594 -0.152112926121472 0.0276523175861393 0.124460753801612 -0.166568785614911 -0.121054221057615 0.0604571276018331 0.17068060789702 0.206353568546783 0.218746887945428
94.0 0.122121202608153 0.171663374008443 0.0495425867402973 -0.14689227882378 0.0362892403387715 0.110603113269019 -0.166489317882676 -0.118118692517893 0.0579708366417481 0.16386334286003 0.198912848825431 0.210451102129537
95.0 0.120587407332294 0.160786607595987 0.0401993655640278 -0.14068700258145 0.0401940588647539 0.100493079254703 -0.162581899581936 -0.112951529859235 0.0566560412443432 0.157990878357773 0.191947482843317 0.202582182761467
96.0 0.117953093639299 0.149487609415778 0.031534697912869 -0.133720591610698 0.0432092659352416 0.09051129841257 -0.15824771386946 -0.110984297917857 0.0497267773444135 0.147141038079887 0.180897449509442 0.191204304151341
97.0 0.11519520777997 0.134435637851527 0.0192406305791289 -0.124815546412096 0.0479772799769113 0.0768382038807158 -0.15630368194033 -0.112114654459553 0.0378092690399551 0.131041810740334 0.165123587452943 0.175498439725755
98.0 0.110486788265672 0.121302593181036 0.0108160488440888 -0.115894996948345 0.0498353385857059 0.0660593835623978 -0.150491702118563 -0.110078464571605 0.0289593527855674 0.117531201563988 0.15089014814923 0.160856053892973
99.0 0.101392228069638 0.110840609475364 0.0094485021298587 -0.106116600678766 0.0459718687802083 0.0601445904296348 -0.139694833453286 -0.104341698185134 0.02230315024436 0.105974568508516 0.137682621264658 0.14732106706049
100.0 0.0879270731256061 0.102752573113088 0.0148255621370379 -0.0953399167658563 0.0365507342257933 0.0587891097109563 -0.122777668986541 -0.0921639704408587 0.0202690002147191 0.0967784668779099 0.125042056146677 0.133955891599442
101.0 0.0725626059709309 0.0951788110908932 0.0226162856343115 -0.0838707567407343 0.0249731249594745 0.0588975942883696 -0.101758272424444 -0.0732412887990196 0.0234871437056236 0.0898115880366867 0.112747417141433 0.120214291036861
102.0 0.0553628780854251 0.0884717804903259 0.0331089923735631 -0.0719173541066005 0.0111269295821333 0.0607903858151433 -0.0775920540585099 -0.0506423833764522 0.0291744648481286 0.084092665389613 0.101021201364455 0.106987529676899
103.0 0.0369577002289532 0.0799995818984039 0.0430419765052538 -0.058478629580837 -0.00304214497158625 0.0615208031439757 -0.055521444284212 -0.0319185763152557 0.0283067616681747 0.0723175672073405 0.0848396059656028 0.0904469257959031
104.0 0.0211703834048059 0.0695051927344687 0.0483348678556131 -0.045337777306261 -0.0135822263355562 0.0589200183609313 -0.0390441025613672 -0.0198323230277652 0.0207275710306512 0.0559427357701595 0.0662906031986121 0.0726061505062582
105.0 0.0110960624847775 0.0619038621955881 0.050807818195698 -0.036499938361771 -0.0198558638529419 0.0563558097922071 -0.0303528768693801 -0.0153498992945213 0.015094089524001 0.045553607479336 0.0547027228821491 0.0612308105528763
106.0 0.00407994347654323 0.0573935693456894 0.0533136402372205 -0.0307367416409085 -0.0246168435977206 0.0553535891395715 -0.0251295849036844 -0.0139415766915449 0.0116348825713169 0.0395452574160208 0.0477747293948002 0.054281668606623
107.0 0.000201435148358202 0.0537102369995689 0.0535088140999233 -0.026955801784518 -0.0266536651799482 0.0536095174920564 -0.0235522763519408 -0.014830608235144 0.00856395517095723 0.0350063404626987 0.0427955128445979 0.049255854445432
108.0 -0.000723477354718726 0.048749065961526 0.0494725302142163 -0.0240127620951696 -0.0250980058326245 0.0491107939397209 -0.0253591002753184 -0.0173856822599303 0.00475342358487997 0.0296797199243517 0.0373339248466735 0.043659944674387
109.0 -0.000947735120416436 0.0435087489928682 0.0444564870721485 -0.0212805097629649 -0.0227021170026228 0.0439826401566941 -0.0273968647451395 -0.0198370830152635 0.00124868894633361 0.0245516505724684 0.0319891171250973 0.0380532683462559
110.0 -0.000281069350814939 0.0339285290574882 0.0342096411730013 -0.016823759207192 -0.0172453304038979 0.0340690965049172 -0.027443897110476 -0.01787671503205 -0.000176678338895459 0.0182461955589582 0.024078997544581 0.0288375164535504
111.0 0.000750660562451981 0.0264412499104258 0.02569059195577 -0.0135959800518635 -0.0124699626034683 0.0260659267965741 -0.02382042418338 -0.0102157288251968 0.00397386584455272 0.016343802124903 0.0193225488299633 0.0219018600264261
112.0 0.00143014481565948 0.0229470069403473 0.021516863467198 -0.0121885886531428 -0.0100433674372469 0.0222319624820078 -0.0218375232425893 -0.00535432823186138 0.00748474331091902 0.0163675755803459 0.0174904341018927 0.0186275989266674
113.0 0.00211350855404318 0.0215823480517243 0.0194688304849419 -0.0118479397315433 -0.00867766514128997 0.0205256033113431 -0.0232512690790312 -0.00569286322073808 0.0076217264137561 0.0157101500997141 0.016491695048278 0.0172075348170354
114.0 0.00307784609272813 0.0210134352405636 0.0179355553964036 -0.0120456368463209 -0.00742886650545921 0.019474526807595 -0.0271205089694953 -0.00968801369297928 0.00517742953625543 0.0141973406641616 0.0157377551147592 0.0167385783089966
115.0 0.00358285204388438 0.0206501051738949 0.0170672260506854 -0.0121164572344179 -0.00674219795765669 0.0188587060827662 -0.0308730889637633 -0.0141862369209344 0.00230379982309816 0.0125986080200023 0.0150666571043606 0.0165104022829432
116.0 0.00373928232099293 0.0203319127002426 0.0165925970308958 -0.0120355962107749 -0.00642666784620863 0.0184622999597093 -0.0343686230950558 -0.0189598447665679 -0.000941077853551293 0.0108285887619318 0.014352715533682 0.0163446105219289
117.0 0.00393335863512525 0.0190642412177268 0.0151308557107836 -0.0114987798495146 -0.0055987490868595 0.0170975474193271 -0.0366510596256982 -0.0221402185790693 -0.00335156437048786 0.00904212108081953 0.0132240506429881 0.0155199703730778
118.0 0.00436629269528494 0.0170447484144905 0.0126784176257416 -0.0107055029412612 -0.00415607002577669 0.0148616067418604 -0.0384369798203533 -0.0244884980724488 -0.00538867184199809 0.0071051112561216 0.0117568006229443 0.014209185716333
119.0 0.0052662042183705 0.0146633947320597 0.00939718060680219 -0.00996479525954346 -0.00206549354201531 0.0120303047334727 -0.0398631676811631 -0.0258632465557889 -0.00669407462697095 0.00539012593802937 0.0102733014789396 0.0126939330318217
120.0 0.00559118969730092 0.0125243242608093 0.00693313431531561 -0.0090577620867044 -0.000670975062088736 0.0097287429246764 -0.0406292070187749 -0.0270212355339087 -0.00805142573951526 0.0036333728831608 0.00870403909875915 0.0111229183492944
121.0 0.00588195666517095 0.0095315073584887 0.0036495491099657 -0.00770673464128036 0.00111620405847631 0.00659053355626571 -0.0408263862926177 -0.0273730806922808 -0.00909060090475665 0.00163710500433645 0.00667980698215394 0.00896865471134831
122.0 0.00550474451837704 0.00658176444106028 0.00107702395949948 -0.00604325583337662 0.00221386042403435 0.00382939694009936 -0.0397944346741122 -0.0267095392920026 -0.00951524190507046 -5.43114272456703e-05 0.00467383372770479 0.00673485505155452
123.0 0.00496397465041196 0.00494669381562057 -1.72739046765485e-05 -0.00495533250392004 0.00249062435198298 0.00246471379191662 -0.0384022033327266 -0.02590264326988 -0.00938659189752798 -0.00071085530742169 0.00371733095858096 0.00559842729717523
124.0 0.00467616525402348 0.00417197363826312 -0.000504188048092889 -0.0044240685559935 0.00259017911534772 0.00183389234414335 -0.0375537921855982 -0.0257320282056197 -0.00933864899717852 -0.000846533241169876 0.00350886706296087 0.00533262499832
125.0 0.00449722815681822 0.00383019179682557 -0.000667033067753797 -0.00416370951856708 0.00258213018274043 0.00158158083056578 -0.0368975231128459 -0.0257742263636908 -0.00926998003343995 -0.000704952661096567 0.00366079716016752 0.00547514334142443
126.0 0.00427947416314288 0.00364265874642695 -0.000636815662624704 -0.0039610637929044 0.00245814372136378 0.00150292084104189 -0.0363529791206224 -0.0260090957942753 -0.00930794641646659 -0.000539851632292014 0.00388894627293751 0.00572557924910235
127.0 0.00403577395341006 0.00337049970823544 -0.000665275342157239 -0.00370313788643763 0.00235052597515592 0.00135261230742588 -0.0358371799343032 -0.0262832807385979 -0.00942419083801973 -0.000455715358798659 0.0040495423111662 0.00591545042517861
128.0 0.00374578637593549 0.00299323271367004 -0.000752553256611913 -0.00336951008824006 0.00224917098480704 0.00112033979256418 -0.0352448168030074 -0.0265043928079268 -0.00957523119930278 -0.000455093651709403 0.00411609034406941 0.00600710814198499
129.0 0.00341643871818169 0.00259421303176951 -0.00082222305161115 -0.00300532372877259 0.00211933269944886 0.000885995750835264 -0.0345568041245626 -0.0266392801184576 -0.00970599999665811 -0.000478010970037655 0.00413606074573222 0.0060431055567148
130.0 0.00304678003964236 0.00214722695616809 -0.000899547845513028 -0.00259700239302618 0.0019731619655593 0.000623840432163233 -0.0337995604708042 -0.0267148829278373 -0.00984277607430509 -0.000548886124984922 0.00409128186650299 0.00600769828359232
131.0 0.00263910094939119 0.00164297642772393 -0.000996121825131303 -0.00214104054572676 0.00181760794351152 0.0003234293101684 -0.0329899370886989 -0.0267458950822234 -0.00999722480598862 -0.000676559423226604 0.00397661030530815 0.00589720597770448
132.0 0.0021960896197358 0.00108120063199627 -0.00111488662915836 -0.00163864656714222 0.00165548635158268 -1.6842934788041e-05 -0.0321389380373053 -0.0267418218420516 -0.0101739687990014 -0.000862223886301185 0.00379321182806184 0.00571376108082371
133.0 0.0017207165220568 0.00046524607893309 -0.00125547311045983 -0.00109298301286035 0.00148809632954438 -0.000395112512535121 -0.0312530045864066 -0.0267081388085423 -0.0103738351816373 -0.00110349422249196 0.00354487430047311 0.0054617801118492
134.0 0.00121579129994214 -0.000200026194519863 -0.00141581838243011 -0.000507883676844608 0.00131580586283227 -0.000807923712781065 -0.0303365686881885 -0.0266479074530442 -0.010595745664673 -0.00139652970081934 0.00323642979003673 0.00514652066361709
135.0 0.000684198489723122 -0.000910147690965623 -0.00159434615262681 0.000112973294119745 0.00113927260452814 -0.0012522476550381 -0.0293934645595199 -0.0265631890342 -0.0108380291926345 -0.00173732983108211 0.00287261232239211 0.00477303286365576
136.0 0.000128466720597247 -0.00166058804956016 -0.00178905621129175 0.000766061690063725 0.000958760884026124 -0.00172482250790357 -0.0284278494509843 -0.0264559665689905 -0.0110989036276289 -0.00212182158188149 0.00245817822964422 0.00434634251793758
137.0 -0.000448950888528689 -0.00244714604579991 -0.0019981958991764 0.00144804899514062 0.000774620264974153 -0.00222266874084805 -0.0274427368902671 -0.0263285224306095 -0.0113770148394238 -0.00254638947461856 0.00199739557800054 0.00387101168149368
138.0 -0.00104553965685342 -0.00326585879416693 -0.00222031466731503 0.00215569949731576 0.00058738586669084 -0.00274308315591037 -0.0264412793995873 -0.0261825167929833 -0.011670937922709 -0.00300761476631584 0.00149425487080556 0.00335130544417082
139.0 -0.00165926120881835 -0.0041133567453709 -0.00245408838343272 0.00288630911702188 0.000397412743776327 -0.00328372315002414 -0.0254255851111581 -0.0260194835953142 -0.0119793570947916 -0.00350241288768101 0.000952392661049336 0.0027910546039501
140.0 -0.00228797449004016 -0.00498611972142385 -0.00269814154891183 0.00363704475179945 0.000205083842378897 -0.00384213093664997 -0.0243983889631757 -0.02584050363548 -0.0123006731144799 -0.00402758989188497 0.000375412240249858 0.00219404105227723
141.0 -0.00292978155451591 -0.00588118075140121 -0.00295139730112522 0.00440548236710702 1.08090047969485e-05 -0.00441628918146814 -0.0233622633839669 -0.0256474918572266 -0.012633771566014 -0.00458039527325147 -0.000233467514849272 0.00156367556016328
142.0 -0.00358311339130487 -0.00679589162246679 -0.00321277725521251 0.00518950070596922 -0.000185167485546707 -0.00500433451874014 -0.022319163427777 -0.0254421618762496 -0.0129778361442287 -0.00515841840697559 -0.000871396414837737 0.000902974547325917
143.0 -0.00424637139796504 -0.00772813211568871 -0.00348175536336265 0.00598725082970348 -0.000382307717426738 -0.00560494378065896 -0.0212710174368839 -0.0252252017954351 -0.0133317188196002 -0.00575951582788412 -0.00153586593850076 0.000214574323249193
144.0 -0.0049182231504486 -0.00867516592248657 -0.00375694486751466 0.00679669405917853 -0.000580638501896076 -0.0062160578421443 -0.0202192062891129 -0.0249976936449529 -0.0136941978275023 -0.00638104600267504 -0.00222396462163148 -0.000498473141826768
145.0 -0.00559725976986409 -0.00963504095685989 -0.0040377774138246 0.00761615011765053 -0.00077974133395816 -0.00683640801917947 -0.0191653627370462 -0.0247602914995791 -0.0140643045601663 -0.00702104741303557 -0.00293340275825569 -0.00123377766729384
146.0 -0.00628188745979714 -0.0106059419991304 -0.00432403318913661 0.00844390489909795 -0.000978927215608358 -0.00746497243797745 -0.0181116858742438 -0.0245142054296751 -0.0144413462946742 -0.00767784068961698 -0.00366221557945219 -0.00198928831050065
147.0 -0.00697074230682162 -0.0115862552915508 -0.00461548743770324 0.00927848403457893 -0.00117762990185487 -0.00810085628423686 -0.0170597444823835 -0.0242611743324883 -0.0148247723353946 -0.00834984804773869 -0.00440847459370186 -0.00276294973422826
148.0 -0.00766295234181739 -0.0125741311547441 -0.00491115595728225 0.0101185074617184 -0.00137589946244717 -0.00874263336656381 -0.0160101035835121 -0.0240007833807275 -0.0152134258322112 -0.00903504424974873 -0.00516998372109997 -0.0035525054095299
149.0 -0.00835716620940416 -0.01356822920705 -0.00521103182366976 0.0109626921871254 -0.00157306784676379 -0.00938962284379812 -0.0149641699998763 -0.0237346627543312 -0.015606662711921 -0.00973190634867901 -0.00594495254236119 -0.00435608527820652
150.0 -0.00905264455576029 -0.0145674227371715 -0.00551476213284882 0.0118100380820714 -0.00176894154808589 -0.0100410812077371 -0.0139224253757714 -0.0234635061222836 -0.0160039088047171 -0.0104392184993799 -0.00673200810813131 -0.00517227539228152
151.0 -0.00974829352221408 -0.0155703553971617 -0.00582206331691702 0.012659302483486 -0.00196311042401188 -0.0106961987252313 -0.0128864276874844 -0.0231883013414975 -0.0164047229662283 -0.0111556463943309 -0.00752954600713561 -0.00599938230702286
152.0 -0.0104433364981371 -0.0165758437368171 -0.00613254194456722 0.0135095545443077 -0.00215538273835281 -0.0113542189049534 -0.011857027510538 -0.0229098966025539 -0.016808489937629 -0.0118798723718007 -0.00833601248778169 -0.00683577247229255
153.0 -0.0111368545222552 -0.017582696276079 -0.00644585962063661 0.0143597328261918 -0.00234548511439539 -0.0120142671067262 -0.0108348131366706 -0.0226284374432313 -0.0172143107474174 -0.012610393261977 -0.00914977313581365 -0.00767980920852081
154.0 -0.0118281804299836 -0.0185899114785077 -0.00676172569066571 0.0152090482970856 -0.00253322829669812 -0.0126757960214694 -0.00982033972290613 -0.0223445810196301 -0.0176216740799518 -0.0133460955879005 -0.00996961779717691 -0.00853015504511879
155.0 -0.012516582605844 -0.0195967311499348 -0.00708015548970302 0.0160566580839984 -0.00271820918338018 -0.0133384268522457 -0.00881432488993782 -0.0220589082367166 -0.0180303167066675 -0.0140861635277067 -0.0107944382832193 -0.00938571873297986
156.0 -0.0132011506965457 -0.0206028620058704 -0.0074017245888424 0.0169020312318007 -0.00289970594979706 -0.0140023042274884 -0.00781764267483546 -0.021772494457846 -0.0184402971932554 -0.014830128571719 -0.0116235670526109 -0.0102457638203844
157.0 -0.0138814645657489 -0.0216069400775808 -0.00772548720014856 0.0177442151303532 -0.00307798745155541 -0.0146662410994786 -0.00683021902838715 -0.0214856506901546 -0.0188507238218666 -0.0155764880247961 -0.0124553504280814 -0.0111086011545526
158.0 -0.0145567742116167 -0.0226080691077929 -0.00805128150565244 0.0185824282536995 -0.00325275542300146 -0.0153296748878144 -0.00585223901864103 -0.0211983914840264 -0.0192608464142856 -0.0163240316156223 -0.0132886459698292 -0.0119730215133035
159.0 -0.015226790567124 -0.0236055936200871 -0.00837878645556371 0.0194161712285562 -0.00342400187314812 -0.0159921704144247 -0.00488377851206858 -0.0209107243300921 -0.0196700361771663 -0.0170717966532589 -0.0141223318295731 -0.0128379657070795
160.0 -0.0158909766638359 -0.0245989335742073 -0.00870793381011595 0.0202449443775607 -0.00359151890687185 -0.0166534066081333 -0.00392505123491104 -0.0206234293943375 -0.02007796940367 -0.0178189964220897 -0.0149554423177579 -0.0137024032647175
161.0 -0.0165489105088857 -0.025587790361718 -0.00903886796067293 0.021068344905529 -0.0037550296806724 -0.0173133152181644 -0.00297614295512508 -0.0203367627531242 -0.0204844794474449 -0.0185651288771609 -0.015787383252501 -0.0145657066543484
162.0 -0.0172003263382852 -0.0265717191409253 -0.00937139153241638 0.0218860198928428 -0.00391446445278436 -0.0179715699924212 -0.00203753450084425 -0.0200515840266032 -0.0208895775566025 -0.019309644446357 -0.0166174605902862 -0.0154271161443095
163.0 -0.0178446021414316 -0.0275500057108777 -0.00970540291552679 0.0226973024606231 -0.00406959809419629 -0.0186277118580763 -0.00110879898636376 -0.0197678020397682 -0.0212927358087822 -0.0200517264934756 -0.0174448318394693 -0.0162858039456385
164.0 -0.0184813691839264 -0.0285226705512356 -0.0100413010306674 0.023501994853436 -0.00422001873895607 -0.019281989675101 -0.000189947115151319 -0.0194854668938628 -0.0216935853874539 -0.0207909060896133 -0.0182689177218803 -0.0171411983492001
165.0 -0.0191107772744617 -0.0294892875308187 -0.0103784615636915 0.0242999952655182 -0.00436615481138872 -0.0199338522871601 0.000719629372484242 -0.0192048469781281 -0.022091887904148 -0.0215266021916498 -0.0190890803858898 -0.0179925683612324
166.0 -0.0197325638999908 -0.0304489580035273 -0.0107163690362407 0.025090766093011 -0.00450810071674223 -0.0205826763199246 0.00162015870364428 -0.0189256923061824 -0.022487083960714 -0.0222579819619073 -0.0199044577484364 -0.0188391009872281
167.0 -0.020346545397757 -0.031401461937399 -0.0110549036348377 0.0258740305740074 -0.00464584198027431 -0.0212281893756612 0.00251237214100591 -0.0186478256640766 -0.0228787400173241 -0.0229843740534197 -0.0207144604455633 -0.0196801836149721
168.0 -0.0209524816589177 -0.0323466375392113 -0.0113941007174578 0.0266495491909866 -0.00477919648059876 -0.0218703967803534 0.00339623858065035 -0.0183715439758161 -0.0232665843655406 -0.0237053843331123 -0.0215185424721334 -0.0205153553096955
169.0 -0.0215502975932643 -0.0332841104006178 -0.0117337844091726 0.0274171986387959 -0.00490826938983678 -0.0225089616403314 0.00427238246563405 -0.0180967089836188 -0.0236503315700407 -0.024420615821316 -0.0223163257024882 -0.0213441847017894
170.0 -0.0221401971406771 -0.0342139788899658 -0.0120737671297234 0.0281771095165941 -0.00503323129773356 -0.0231438560786582 0.00514163471651917 -0.0178229583953332 -0.0240298346868937 -0.0251297185922765 -0.0231075184363985 -0.0221663526806984
171.0 -0.0227219456551913 -0.0351360025317498 -0.0124140493503128 0.0289289609027833 -0.00515396139173329 -0.0237750172247482 0.0060042241671522 -0.0175502997780814 -0.0244047754716234 -0.0258323184245359 -0.0238915823498394 -0.0229813553307461
172.0 -0.0232955193782826 -0.0360503486438012 -0.0127548253909591 0.0296729272203917 -0.00527035866127108 -0.0244025582705018 0.00686042873654991 -0.017279028143627 -0.0247753297254574 -0.0265285137826533 -0.0246686769843983 -0.023789272868438
173.0 -0.0238608090401906 -0.0369562785332889 -0.0130954674984502 0.0304085160311895 -0.0053826622216221 -0.0250258582167926 0.00771104165862551 -0.0170088586916728 -0.0251411027583918 -0.0272176275664128 -0.0254380596439845 -0.0245894187993435
174.0 -0.0244179524655837 -0.0378538485906571 -0.0134358950982159 0.0311358619797055 -0.00549100972666823 -0.025644888485457 0.00855669448433001 -0.0167394507277634 -0.025501794342767 -0.0278994567583705 -0.0261995905806978 -0.0253816823085369
175.0 -0.0249667780106826 -0.0387430393267073 -0.0137762122680318 0.0318548888237243 -0.00559526826019646 -0.0262596343642734 0.00939841101891943 -0.0164701921859721 -0.0258569102839419 -0.0285735572083267 -0.0269529552546248 -0.026165763750985
176.0 -0.0255074884283321 -0.0396234525533947 -0.0141159873942021 0.0325654602745455 -0.00569574299516228 -0.0268697001244153 0.0102365776177471 -0.0162010590870034 -0.026206341725433 -0.0292397002649162 -0.0276978461805248 -0.026941314790067
177.0 -0.0260402366163539 -0.0404953684745665 -0.0144550953179545 0.0332677972860344 -0.00579257162881204 -0.0274752216776711 0.0110722859352464 -0.0159314568538418 -0.0265497415110657 -0.0298977682169531 -0.0284342991404686 -0.0277084472160216
178.0 -0.0265655864811259 -0.041358688744156 -0.0147930834518714 0.0339621591647349 -0.00588624231506591 -0.0280758808374185 0.0119068257525068 -0.0156605942008343 -0.0268867368451794 -0.0305475549078854 -0.029162186997215 -0.0284671215404591
179.0 -0.0270832460929392 -0.0422137994072193 -0.0151305436301752 0.0346485338452351 -0.00597633193958094 -0.0286721930701892 0.0127402788247657 -0.0153886460013835 -0.0272174269263427 -0.0311890027263608 -0.0298814928190587 -0.0292173659538638
180.0 -0.027593404800032 -0.0430605110473411 -0.0154671012618699 0.0353269636355438 -0.00606315639334644 -0.0292637929897714 0.0135732209531036 -0.0151159448782368 -0.0275422994968542 -0.0318225186879272 -0.0305924504862497 -0.0299591949688773
181.0 -0.0280962085994492 -0.0438987261517388 -0.0158025149857536 0.0359974703160947 -0.00614683948357717 -0.0298506380510854 0.014406482276562 -0.0148418857579518 -0.0278609748978895 -0.0324477786138326 -0.0312948407663171 -0.0306925190179805
182.0 -0.0285919752482039 -0.0447285885976481 -0.016136612028175 0.0366602591770345 -0.00622766813607585 -0.0304326093129316 0.0152410723883527 -0.014565817509328 -0.028172918043136 -0.0330645670954207 -0.0319885993163419 -0.0314173890299612
183.0 -0.0290806742521998 -0.0455499783765503 -0.0164693034441527 0.0373153388643246 -0.00630566876368171 -0.0310096455436195 0.0160776080722418 -0.0142873564064964 -0.0284779990248157 -0.0336727732389369 -0.0326736930121777 -0.0321336856652054
184.0 -0.0295626780677614 -0.0463631733428127 -0.0168005434442411 0.0379629564257614 -0.00638106359714169 -0.0315818607787629 0.0169166979686198 -0.0140066445404446 -0.028776684678534 -0.0342726795910871 -0.0333503959174622 -0.0328416871224363
185.0 -0.0300379358409878 -0.0471680739408411 -0.0171301628976604 0.0386030449656913 -0.00645389911516235 -0.0321491196471855 0.0177587039288145 -0.0137234639443619 -0.0290688271793675 -0.0348642860506434 -0.0340185580057496 -0.0335411969846165
186.0 -0.0305068580662059 -0.0479650655930192 -0.017458171773523 0.0392359582006841 -0.00652434480335946 -0.0327116435750998 0.0186045885459662 -0.0134373142526586 -0.0293543019067395 -0.0354476896042133 -0.0346784901973462 -0.0342325993285991
187.0 -0.0309698986653225 -0.0487542981978965 -0.0177843811265515 0.0398621208230939 -0.006592769326301 -0.0332693524766967 0.0194552840434239 -0.013147646757767 -0.0296330447051798 -0.0360229401811227 -0.0353303525560152 -0.0349161403989656
188.0 -0.0314270972427996 -0.0495358004048456 -0.0181086936865078 0.040481460351102 -0.00665922176872157 -0.0338222536426492 0.0203112218163734 -0.01285442157832 -0.0299049740276815 -0.0365900149659482 -0.0359742274836063 -0.0355918499252825
189.0 -0.0318787653034282 -0.0503097325208268 -0.018431010858691 0.0410942305867647 -0.00672388751364489 -0.0343703508262425 0.0211729150659774 -0.0125572300282541 -0.0301701449320439 -0.0371492418486844 -0.0366103514785592 -0.0362600343286812
190.0 -0.032324966173148 -0.0510762741116094 -0.0187513304052781 0.0417006107083647 -0.00678682803388585 -0.034913791517772 0.0220409191076389 -0.0122557646746485 -0.0304284402042941 -0.0377004985130383 -0.0372387492530641 -0.0369207057986409
191.0 -0.0327660235687183 -0.0518356631768808 -0.0190696511742235 0.0423008385161088 -0.00684818657057107 -0.0354526516461856 0.022915519821281 -0.0119502554039486 -0.0306802361761694 -0.03824415866404 -0.0378596761259148 -0.0375741617265437
192.0 -0.0332022982190387 -0.0525881677984832 -0.0193859240530867 0.0428952305085055 -0.00690819212710143 -0.0359870673389117 0.0237974466120385 -0.0116401898114868 -0.0309255325082162 -0.0387804146874306 -0.0384734576143006 -0.0382207007694567
193.0 -0.0336341213877354 -0.0533339745060246 -0.0196998811616688 0.0434840466597325 -0.00696713726558938 -0.0365169145977814 0.0246869294242622 -0.0113253526274212 -0.0311642805063216 -0.0393093171052606 -0.0390803583352738 -0.0388605737166691
194.0 -0.0340615665727228 -0.0540734704423013 -0.0200118697871297 0.0440675178448803 -0.00702486692691421 -0.0370426633007044 0.0255841836734954 -0.0110058271068999 -0.0313967462186049 -0.0398313286008457 -0.0396806600734665 -0.0394941522729124
195.0 -0.0344851082854382 -0.0548069034302623 -0.0203217775989613 0.0446460055167232 -0.00708168944052884 -0.0375643612663953 0.0264898054506393 -0.0106811223972451 -0.0316229210502604 -0.0403466873665174 -0.0402747504902108 -0.0401217733522411
196.0 -0.034904893768686 -0.0555344980894678 -0.0206295467686994 0.0452196957534625 -0.00713769075736862 -0.0380820331122345 0.0274035679141433 -0.0103515680366782 -0.0318431887315075 -0.0408555645445725 -0.0408627806366812 -0.0407436589195266
197.0 -0.0353211929014443 -0.056256418574865 -0.0209351960452403 0.0457888299074273 -0.00719302672005327 -0.0385957885501271 0.0283258879974866 -0.0100167320335192 -0.0320574071735985 -0.0413581452788807 -0.0414450223524293 -0.0413600202824254
198.0 -0.0357343386965785 -0.0569731375493515 -0.0212387350806361 0.0463537263057811 -0.00724781152091274 -0.039105926657264 0.0292564466277314 -0.00967723138061623 -0.0322663280574578 -0.0418550100762915 -0.0420219552177162 -0.0419713058589915
199.0 -0.0361445996299627 -0.0576848013040917 -0.0215401688438248 0.0469146943834653 -0.00730223980109743 -0.0396124558424172 0.030195322140888 -0.00933289851623504 -0.0324700957564352 -0.0423463607467258 -0.0425938261235293 -0.0425777464977088
200.0 -0.0365523079921354 -0.0583917277475136 -0.0218394028541275 0.0474719904782879 -0.00735646028247723 -0.0401155259925561 0.0311425548648356 -0.00898366658626663 -0.0326687845948552 -0.0428324952606626 -0.0431608592096492 -0.0431796065989344
201.0 -0.0369576348483922 -0.0590942746183505 -0.0221366310690862 0.048025940632033 -0.00741049130479037 -0.0406154568672523 0.0320979714831843 -0.00862949632185185 -0.0328624813547156 -0.0433136155345713 -0.0437234609808294 -0.0437773133938244
202.0 -0.0373609108610423 -0.0597927716408718 -0.0224319048199249 0.0485768097318178 -0.00746449271946768 -0.0411123645614194 0.0330614342521876 -0.00827057614037898 -0.0330515703474647 -0.0437902136712231 -0.0442819377470387 -0.044371183862432
203.0 -0.0377623062571585 -0.0604876311560417 -0.0227253475710062 0.0491249282206655 -0.00751846918807257 -0.0416065029189021 0.0340326781830427 -0.0079069448170932 -0.0332363464578157 -0.0442625430082738 -0.0448367383147696 -0.0449616237849175
204.0 -0.0381621997868876 -0.0611790654396275 -0.0230169258438539 0.0496706117708393 -0.00757263659559203 -0.0420980026201361 0.0350111787029379 -0.00753886976247518 -0.0334172040911061 -0.04473102508173 -0.0453881422518365 -0.0455488905788643
205.0 -0.038560786433229 -0.0618673293306326 -0.0233065738841743 0.0502140714118005 -0.00762711093293487 -0.0425869794596061 0.0359966657584328 -0.0071665371605117 -0.0335942977703678 -0.0451958769010256 -0.0459363905202594 -0.0461331652838515
206.0 -0.0389583606521187 -0.062552748099247 -0.0235944033993162 0.0507555613409464 -0.00768197617264326 -0.0430735900877737 0.0369886606887675 -0.00679008652733466 -0.0337679981612067 -0.0456574527808062 -0.0464818012462686 -0.0467148322163735
207.0 -0.039355122550717 -0.0632354891966462 -0.0238803748582176 0.0512953094594438 -0.00773735317529536 -0.0435579636686594 0.0379867229988796 -0.0064096770215897 -0.0339384475652886 -0.0461159836438787 -0.0470245867226433 -0.0472940407056609
208.0 -0.0397513207035508 -0.0639158329052071 -0.0241645164293949 0.0518335786503523 -0.0077934060513464 -0.0440401666967274 0.0389903833222917 -0.00602551187756627 -0.0341061073953024 -0.0465717824482223 -0.0475650988358649 -0.0478712072628775
209.0 -0.0401471801170974 -0.0645941175935312 -0.0244469396529007 0.0523706498056332 -0.00785010769138076 -0.0445205245199136 0.0399988177938168 -0.00563797713386551 -0.0342712151894529 -0.0470253499421277 -0.0481036642974263 -0.0484465463106362
210.0 -0.0405428651454912 -0.0652704689365798 -0.0247276049115477 0.0529066675302657 -0.00790764306867408 -0.0449990105519774 0.0410116022823844 -0.00524703378076538 -0.0344339417532883 -0.0474767498365792 -0.0486404998198547 -0.0490203137931501
211.0 -0.0409386544767326 -0.0659450001519874 -0.0250063462520743 0.0534418518258989 -0.0079661462241404 -0.045475659625512 0.0420280332490047 -0.00485307900230788 -0.034594617615398 -0.0479262575271996 -0.049175765487506 -0.0495926414721382
212.0 -0.0413346430618277 -0.0666179636023568 -0.0252833208374795 0.0539763159507893 -0.00802565705128403 -0.0459506352306394 0.043047360352423 -0.00445628815976354 -0.0347534614533751 -0.048374111828138 -0.0497097377902715 -0.0501637427374568
213.0 -0.0417310738596022 -0.0672894406862111 -0.0255584154988409 0.0545102637690926 -0.00808632223787243 -0.0464239244944006 0.0440689061959991 -0.00405695531154887 -0.034910682882564 -0.0488205327211666 -0.0502425105475562 -0.0507337759629294
214.0 -0.0421279749080942 -0.0679595703467508 -0.0258316204954331 0.0550438002313807 -0.00814818333615495 -0.0468955693090739 0.0450918853773675 -0.00365530461985858 -0.0350665353723658 -0.0492656819736698 -0.0507743261356308 -0.0513028711997741
215.0 -0.0425255547189056 -0.0686283270741046 -0.026102833773948 0.0555769793668794 -0.00821137333202363 -0.0473655912410723 0.0461155054114836 -0.00325160674677722 -0.0352212464491701 -0.0497097399032521 -0.0513053093313502 -0.0518711924379102
216.0 -0.042923872115783 -0.0692957462549875 -0.0263719542773296 0.0561098289901802 -0.0082759703913387 -0.0478338558348431 0.0471391642445348 -0.00284602043862199 -0.0353748847256584 -0.0501527993385705 -0.0518354273319178 -0.0524386785423175
217.0 -0.0433229573815679 -0.0699618946260671 -0.0266389785001188 0.0566424119397727 -0.00834199534664122 -0.0483004394298874 0.0481617756256047 -0.00243893794291727 -0.0355277766402386 -0.0505950536264917 -0.0523649058470443 -0.0530054921177365
218.0 -0.0437229231447809 -0.0706266124663665 -0.0269037105602426 0.0571747605653134 -0.00840960933267283 -0.0487651872488287 0.0491826347876899 -0.00203052722764671 -0.0356799446874117 -0.05103660230322 -0.0528938610735333 -0.0535717653934883
219.0 -0.044123730348585 -0.0712898660698649 -0.0271661951744365 0.0577067944818926 -0.00847877400422951 -0.0492280196112832 0.0502008937186265 -0.00162107369317943 -0.0358315460055712 -0.0514774480912703 -0.0534221102334423 -0.0541373238452734
220.0 -0.0445253588862705 -0.0719514925264066 -0.0274261642470016 0.058238423787484 -0.00854959091935503 -0.0496888469779191 0.0512156791820851 -0.00121077035884391 -0.0359827100099275 -0.0519176409115708 -0.0539497533089572 -0.0547022231849455
221.0 -0.0449277984067748 -0.0726112624107212 -0.0276834797605566 0.0587695536805894 -0.00862216573207629 -0.0501473806565153 0.0522262019948948 -0.000799788400878516 -0.0361334062855391 -0.0523570609056545 -0.0544767447328271 -0.0552663465352435
222.0 -0.0453309950619443 -0.0732691061325709 -0.0279381191822304 0.0593000383180705 -0.00869643153536229 -0.0506036175845491 0.0532315221675481 -0.000388490949639054 -0.0362838617713998 -0.0527958404470558 -0.0550030610467395 -0.0558296822463652
223.0 -0.045734775572325 -0.0739246482309359 -0.0281898768345164 0.0598297055802263 -0.00877245577570145 -0.0510572650692537 0.0542308646712711 2.28610125000627e-05 -0.0364340477390757 -0.0532338050857172 -0.0555285446161249 -0.0563920302434779
224.0 -0.046139099251905 -0.0745775983773601 -0.0284385497945981 0.0603583698200133 -0.00885028287884963 -0.0515080753917997 0.0552233938420504 0.00043423676749547 -0.0365838523602649 -0.0536709620523527 -0.0560530657703381 -0.0569532875267772
225.0 -0.0465437510778247 -0.0752276615508163 -0.0286839850771507 0.060885741387705 -0.0089298968999822 -0.0519558239862283 0.056208291319824 0.00084526039081146 -0.0367333636231222 -0.0541071209919399 -0.0565764607153809 -0.0575132555132246
226.0 -0.0469485718355801 -0.0758744917951515 -0.0289260068856299 0.0614115256116885 -0.0090112944825374 -0.0524002496864666 0.0571846991333542 0.00125582132219709 -0.0368825297857928 -0.0545421839084951 -0.0570985480903348 -0.0580717834516408
227.0 -0.0473533340024454 -0.0765176684131238 -0.0291643791607697 0.0619354737544118 -0.00909447875047176 -0.0528410239651088 0.0581517389193168 0.00166561519579134 -0.0370313727305987 -0.0549759547949786 -0.0576192345294383 -0.058628599656914
228.0 -0.0477577748901851 -0.0771567322303008 -0.029398980377749 0.0624572636867509 -0.00917939794072204 -0.0532778806554239 0.0591085218164111 0.00207447561822918 -0.0371797096452589 -0.0554081871876319 -0.0581381808512397 -0.0591834672250897
229.0 -0.0481616622264944 -0.0777912527833057 -0.0296296024167324 0.0629764384584111 -0.00926602055339602 -0.0537104401362751 0.060054444675071 0.00248215196331728 -0.0373275919749216 -0.0558387542053349 -0.0586550668848767 -0.059736118638416
230.0 -0.0485646823586642 -0.0784206688313173 -0.0298559925782164 0.0634926657897364 -0.00935432066827557 -0.0541383614181917 0.0609885662383595 0.00288851520708746 -0.0374748036070779 -0.0562673479320746 -0.0591696792849806 -0.060286222099602
231.0 -0.0489664797388324 -0.0790445458858888 -0.0300780692902395 0.064005532024233 -0.00944420731049046 -0.0545613233995318 0.0619101108250213 0.00329327088618293 -0.0376212332856254 -0.0566937613313571 -0.05968176266191 -0.0608334612391988
232.0 -0.0493667742899642 -0.0796623206340671 -0.0302955479622337 0.0645145330927304 -0.00953562879365927 -0.0549789181783151 0.0628183394738621 0.00369613155477505 -0.0377668237352105 -0.0571176937420302 -0.060190991462003 -0.0613775276301094
233.0 -0.0497652277491694 -0.0802734604819387 -0.0305082335657933 0.0650193124584741 -0.00962849058219802 -0.0553908387252717 0.0637124350886895 0.00409697834552782 -0.0379114484313944 -0.0575389418624484 -0.0606970525300709 -0.0619180684146503
234.0 -0.0501613748603873 -0.0808773516112282 -0.0307159286603269 0.0655193469385404 -0.00972271974890307 -0.0557966358636081 0.0645917344263545 0.00449553657959171 -0.0380548966805064 -0.0579570613961035 -0.0611994935356581 -0.0624546593426276
235.0 -0.0505549275874603 -0.0814734354275591 -0.0309184830827945 0.0660141731175721 -0.00981823023102324 -0.0561959813155166 0.0654554108514391 0.00489160662730512 -0.0381971570548164 -0.0583717750969495 -0.0616979845774316 -0.0629869849686065
236.0 -0.0509454465313708 -0.0820611332468112 -0.0311156739702218 0.0665033098295775 -0.00991486612837531 -0.0565884149653206 0.0663028447292997 0.00528483826930444 -0.0383379325550956 -0.0587827946788677 -0.0621922102619934 -0.063514591783098
237.0 -0.0513325599286125 -0.0826399045618962 -0.0313073380719635 0.0669862182510644 -0.0100126005538434 -0.0569736029038053 0.0671333774325362 0.00567509972978017 -0.0384770702842403 -0.059189729133519 -0.0626816685872837 -0.0640370522390749
238.0 -0.051715785276793 -0.0832090829614254 -0.0314932943068227 0.0674624269148106 -0.0101112401441359 -0.0573511791549297 0.0679462332213077 0.006062099980646 -0.038614394491123 -0.0595922316092279 -0.0631660526000696 -0.0645539521551512
239.0 -0.0520947286225128 -0.0837680342563908 -0.03167330389496 0.0679314019903129 -0.010210733873953 -0.0577206641957255 0.0687408671816996 0.00644555819650853 -0.0387498632172986 -0.0599900265058124 -0.0636448646433419 -0.0650649327500187
240.0 -0.0524689445592403 -0.0843162378847928 -0.0318472924303463 0.0683926260614114 -0.0103108613977036 -0.0580817626453401 0.0695165135949409 0.0068251502850259 -0.0388831637461307 -0.0603827293457345 -0.0641178000007276 -0.0655695182046036
241.0 -0.0528381067501228 -0.0848530862224619 -0.0320150275308414 0.0688455901621557 -0.0104115577994273 -0.0584340798430199 0.0702727782641083 0.00720065117815446 -0.0390142806471739 -0.0607699481200571 -0.0645843136474073 -0.0660672209674015
242.0 -0.0532016590399795 -0.0853780238637872 -0.0321763895646322 0.0692898381961773 -0.0105126441018922 -0.058777218537443 0.0710089730605024 0.00757186252651294 -0.0391429633799358 -0.0611511899039105 -0.0650440764817562 -0.0665575959663376
243.0 -0.0535592665972043 -0.0858905222856055 -0.0323312199057759 0.0697248927653466 -0.0106140281664739 -0.0591108771823669 0.0717245496536248 0.00793831347143405 -0.0392690344452076 -0.0615262979751373 -0.0654966764833515 -0.0670403170367395
244.0 -0.0539105144515434 -0.0863899697652897 -0.0324794854119819 0.0701502655052511 -0.0107155170015387 -0.0594347549817757 0.0724190802013458 0.00829991202187891 -0.0393923054265405 -0.0618948520166476 -0.0659415619059222 -0.067514779592706
245.0 -0.0542549463768542 -0.0868759058260367 -0.0326209749439468 0.0705654138866056 -0.0108170112537586 -0.0597484544871555 0.0730919562929187 0.00865619355377544 -0.0395127763646612 -0.0622564415690735 -0.0663784487069575 -0.0679807209089064
246.0 -0.0545921819469188 -0.087347753775921 -0.032755579805806 0.0709699615731421 -0.0109183142173243 -0.0600516740507476 0.0737428161952376 0.00900699650665414 -0.0396301076450154 -0.0626108068059457 -0.0668068995433946 -0.0684375690584185
247.0 -0.0549218312384453 -0.0878051196915286 -0.0328832925595929 0.0713634722277414 -0.0110192761074665 -0.0603442098629956 0.0743712310889843 0.00935195629586307 -0.0397442699899377 -0.0629575228507747 -0.0672264951907857 -0.0688849325708826
248.0 -0.0552434994389879 -0.0882474611430449 -0.0330039638181145 0.0717454786244616 -0.0111197712946671 -0.0606257144046351 0.0749768831765096 0.0096907396728101 -0.0398551512883783 -0.0632962254163444 -0.0676368257522623 -0.0693223673180521
249.0 -0.0555567892191323 -0.0886744018454099 -0.0331176137146079 0.072115594674318 -0.0112195895459663 -0.0608960087705249 0.0755593177373894 0.0100231750789874 -0.039962548266771 -0.0636266299265449 -0.0680374861328528 -0.0697494991017834
250.0 -0.0558613989924335 -0.0890855540072265 -0.0332241555750724 0.0724734760581502 -0.0113186226320909 -0.0611548553010734 0.0761181551205596 0.0103489946733452 -0.0400662107205032 -0.0639484443216933 -0.0684280737096337 -0.0701658926856771
251.0 -0.0561569794228192 -0.0894805239135615 -0.0333235447791778 0.0728187514408108 -0.0114167177971983 -0.0614020346088818 0.0766533939566628 0.0106678179727964 -0.0401661554007192 -0.0642612271314356 -0.0688082356516668 -0.0705712269685295
252.0 -0.0564431565924038 -0.0898590118387279 -0.0334158553948125 0.0731510840985094 -0.011513650843523 -0.0616374337519131 0.0771644998277846 0.0109794976215734 -0.0402622938922952 -0.0645647996033684 -0.0691775962418872 -0.0709650455292257
253.0 -0.0567196894865067 -0.0902206208852233 -0.0335009314751594 0.0734701551256036 -0.0116093548719809 -0.0618608005094438 0.0776513431702427 0.0112836181244632 -0.0403544351204795 -0.0648588756371704 -0.0695358165006653 -0.0713469193218147
254.0 -0.0569862114324279 -0.0905651467276739 -0.0335788868152392 0.0737756547893479 -0.0117036498844148 -0.0620720050366314 0.0781139543225447 0.0115800141012317 -0.040442480718767 -0.0651430653497649 -0.0698825763610384 -0.0717166274706953
255.0 -0.0572424851453546 -0.0908922901006293 -0.0336497799974569 0.0740673751179826 -0.0117963461779017 -0.06227102900788 0.0785520092676278 0.0118685518937157 -0.0405262344893715 -0.065417168026849 -0.0702175169730456 -0.0720738136708942
256.0 -0.0574882914308269 -0.0912018969403205 -0.0337135926610494 0.0743451120075949 -0.0118873460921628 -0.0624577174309755 0.0789654382381549 0.0121489200970372 -0.040605740986497 -0.065680983300695 -0.0705403565597104 -0.0724181004168908
257.0 -0.0577233718880537 -0.0914937908950133 -0.0337704123924983 0.0746086148261041 -0.0119765023123413 -0.0626320875536543 0.0793543023561743 0.0124208613592522 -0.0406808775888529 -0.0659341654239143 -0.0708508045023619 -0.0727492448470672
258.0 -0.0579474964519341 -0.0917677841389862 -0.033820235762525 0.0748576575077911 -0.0120636419610863 -0.0627940026970812 0.0797186330877077 0.0126843402326531 -0.0407514841314938 -0.0661765364035385 -0.0711485171112085 -0.073066879337908
259.0 -0.0581604981641219 -0.0920237314589957 -0.033863206563795 0.0750921236725769 -0.012148627520671 -0.0629434895368374 0.0800583981123045 0.0129390473523728 -0.0408173811217608 -0.0664078105302083 -0.0714333174525459 -0.073370814634475
260.0 -0.0583622425540318 -0.092261655137055 -0.0338993988216928 0.0753119534072523 -0.0122314367154499 -0.0630805132863228 0.0803736778299099 0.013184920494118 -0.040878815791205 -0.0666279377576372 -0.0717050174010509 -0.0736608077490347
261.0 -0.058552514837266 -0.0924813725666468 -0.0339288991643199 0.0755169703100333 -0.0123118154809776 -0.0632051530758931 0.0806646106696503 0.0134217335469843 -0.0409354787419702 -0.0668366012055163 -0.0719633745505228 -0.0739366850705869
262.0 -0.0587312044414419 -0.0926829352988476 -0.0339517521883775 0.075707083568153 -0.012389730061972 -0.0633173526036416 0.080931316415086 0.013649418626991 -0.0409873077327805 -0.0670337347805549 -0.0722081670699783 -0.0741981146262772
263.0 -0.0588982544431893 -0.0928663213531214 -0.0339680778912529 0.0758822949499776 -0.0124650660422778 -0.0634172284430668 0.0811740993283606 0.0138680378257507 -0.0410342222020685 -0.0672191103800637 -0.0724391837206874 -0.0744449740337159
264.0 -0.0590535384992729 -0.0930315194137476 -0.0339779865677289 0.0760425083271535 -0.0125377645197259 -0.0635047920875916 0.0813930675262127 0.0140773319922624 -0.041076277714944 -0.0673926105753185 -0.0726563642749603 -0.0746772002896657
265.0 -0.0591969915673866 -0.093178620694041 -0.0339816320369858 0.076187819770269 -0.0126076981323827 -0.0635801464928237 0.0815885192646316 0.0142772647526526 -0.0411134058379609 -0.0675542234326209 -0.0728594836497564 -0.0748945668822166
266.0 -0.0593285801633352 -0.0933076721511998 -0.0339790449667618 0.0763181331789977 -0.0126747527941496 -0.063643393180329 0.0817607051264292 0.0144678173814184 -0.0411456198605033 -0.0677037972503461 -0.0730485230096063 -0.0750969572015877
267.0 -0.0594483355686004 -0.0934187464784501 -0.033970386703085 0.0764335446383569 -0.0127389668114932 -0.0636945844140591 0.0819100452294011 0.0146491257966314 -0.041172732546591 -0.0678413024508871 -0.0732232785804496 -0.0752842626969575
268.0 -0.0595562253677295 -0.09351197813745 -0.0339557403079232 0.0765341036135282 -0.0128002143467474 -0.0637338926579112 0.0820369014109572 0.0148209203342639 -0.0411947445446632 -0.0679665782494222 -0.073383693977456 -0.0754564274856685
269.0 -0.0596522328730397 -0.0935874363499217 -0.033935245580829 0.0766198355695037 -0.0128584791372364 -0.063761358178043 0.0821416540247519 0.0149834988437897 -0.0412116561885406 -0.0680795903922567 -0.0735297886927139 -0.075613471318331
270.0 -0.0597364465323254 -0.0936453508290909 -0.0339089259721468 0.0766908991739045 -0.0129137528108307 -0.0637771472618103 0.0822246444373606 0.0151366265051432 -0.0412232735726361 -0.0681803212453689 -0.0736614272027953 -0.0757553073239656
271.0 -0.0598089118790772 -0.0936858398327962 -0.033876939112344 0.0767473761098374 -0.0129659825381445 -0.0637813940343682 0.0822863880220014 0.0152806191056927 -0.041229933547353 -0.0682687132112918 -0.0737788308555324 -0.0758819878195562
272.0 -0.0598696523542274 -0.09370910979901 -0.0338394146699541 0.0767893569476483 -0.0130150926029116 -0.0637742645829249 0.0823274412122653 0.0154155421760759 -0.0412312758124738 -0.0683448336772008 -0.0738817254473251 -0.0759933941801407
273.0 -0.0599188741027581 -0.0937152670033214 -0.0337964193991679 0.0768170823909714 -0.0130612381033542 -0.0637558444102381 0.0823480419443659 0.0155414294518845 -0.0412273574799414 -0.0684087173344451 -0.0739702609325659 -0.0760897079336298
274.0 -0.0599565862107053 -0.0937045602345242 -0.0337479876654701 0.0768305793168577 -0.013104304807589 -0.0637262745723947 0.0823489434610692 0.0156584923778574 -0.0412183535094295 -0.0684602364842732 -0.0740444659893755 -0.0761708284543134
275.0 -0.0599828903943385 -0.0936772146094014 -0.0336942827185122 0.0768300556392253 -0.0131442824276718 -0.063685724724691 0.0823305335365716 0.015766694249019 -0.0412040628551374 -0.0684995194639906 -0.0741044039007942 -0.0762368980168723
276.0 -0.0599979845759245 -0.0936333460195139 -0.0336353886002596 0.0768156669128497 -0.0131813112253832 -0.0636343792454795 0.0822934484737514 0.0158664528436535 -0.0411845275754805 -0.0685266323424637 -0.0741501072453358 -0.0762879898652224
277.0 -0.0600019221277525 -0.0935732082040187 -0.0335713000566938 0.0767875902570452 -0.0132153178503052 -0.0635722845345558 0.0822381128841224 0.0159579347173351 -0.0411596237643201 -0.0685415120936475 -0.074181641313988 -0.0763241902251608
278.0 -0.0599949246036591 -0.0934970773475381 -0.0335021599410925 0.0767460138926881 -0.0132464100992535 -0.0634996585562718 0.0821652790733699 0.0160409830171389 -0.0411295302307832 -0.0685444173874911 -0.0741990882383291 -0.0763455920056392
279.0 -0.059977106060977 -0.0934050956316829 -0.0334279932758775 0.0766911317558103 -0.0132745949473586 -0.0634165650007108 0.0820753343332749 0.0161161477458564 -0.0410940964301526 -0.0685352387921392 -0.0742026358583014 -0.0763523400755011
280.0 -0.0599486222558711 -0.0932974818105364 -0.0333488614621114 0.0766230922052821 -0.0132999245048222 -0.0633231822140153 0.0819689147183653 0.0161836150097239 -0.0410533904191245 -0.068514162568173 -0.0741924293944692 -0.0763445575335139
281.0 -0.0599096989306921 -0.0931744940581809 -0.0332647961094543 0.0765421171752795 -0.0133224741176699 -0.0632196505292808 0.0818465902703827 0.0162435291367832 -0.0410073501950015 -0.0684812846037313 -0.0741684950879484 -0.0763224533097912
282.0 -0.0598604037796866 -0.0930363138036461 -0.0331759105294816 0.0764483694382967 -0.0133422825745177 -0.0631061392296032 0.0817089455666241 0.016296255544194 -0.0409559438383983 -0.0684366542626418 -0.0741309920059135 -0.0762860864435324
283.0 -0.0598009657297262 -0.0928832285251977 -0.0330822145363574 0.0763420783487354 -0.0133594183633534 -0.0629827354630034 0.081556572667383 0.0163421279091288 -0.0408992034363711 -0.0683803454770789 -0.074080002037164 -0.0762356328865753
284.0 -0.0597315511531896 -0.0927153862184867 -0.0329837617018363 0.0762234590184295 -0.0133739167422315 -0.0628495811325605 0.081390018965888 0.0163812694913712 -0.0408370484688215 -0.0683124448271592 -0.074015809935378 -0.0761713287781322
285.0 -0.0596523427383619 -0.0925329601113413 -0.0328805796050003 0.0760926707076878 -0.0133858929009442 -0.0627067978102477 0.0812098088604761 0.0164140348620071 -0.040769583041568 -0.0682331909623209 -0.0739385137742113 -0.0760932471648207
286.0 -0.0595635315730618 -0.0923362334599964 -0.0327726824437373 0.0759498924434566 -0.0133954061399335 -0.062554496601455 0.0810166489890078 0.0164407035952205 -0.0406966666715118 -0.068142512663382 -0.0738482610813297 -0.0760016682483074
287.0 -0.059465264549881 -0.0921254006059343 -0.0326601260465709 0.0757953134286734 -0.0134025355068067 -0.0623927832233079 0.0808109031331757 0.0164615651756708 -0.0406183725951348 -0.0680406158630519 -0.0737452733629998 -0.075896639239483
288.0 -0.0593576658094259 -0.091900610116754 -0.0325429391543825 0.0756291281049416 -0.0134073216957779 -0.0622217606190196 0.0805931467250036 0.0164768656706332 -0.0405345929569664 -0.0679276550961674 -0.0736296161327049 -0.0757785240783368
289.0 -0.0592409448181553 -0.0916620840340862 -0.0324210880438014 0.0754515336107629 -0.0134098826952088 -0.0620415788231349 0.08036396711674 0.0164870228732761 -0.0404453692710402 -0.0678036613988914 -0.073501517194646 -0.075647413084784
290.0 -0.0591152579301027 -0.0914099851857435 -0.032294700911901 0.0752626314342997 -0.0134102792462633 -0.0618523150743976 0.0801237637198015 0.0164923489049161 -0.0403505773509663 -0.0676688448262794 -0.0733612393819636 -0.0755034983141754
291.0 -0.0589807826760452 -0.0911444459158858 -0.0321636981972748 0.0750626193803874 -0.0134085426188811 -0.0616540576551675 0.0798730332699016 0.0164931014863248 -0.0402503473422365 -0.067523216477298 -0.0732087724447601 -0.0753470241959145
292.0 -0.058837610449963 -0.0908656799142138 -0.0320280874605616 0.0748516477995813 -0.0134047859497477 -0.0614469005331282 0.0796123226059246 0.016489752929325 -0.040144649205863 -0.0673670246625666 -0.0730444022224832 -0.0751781165638225
293.0 -0.0586859338601421 -0.0905738457089129 -0.0318879211133868 0.0746298911320296 -0.0133990189629924 -0.0612308920834448 0.0793418162053078 0.0164823037862652 -0.0400333704388623 -0.067200300175261 -0.0728683243864698 -0.0749969857560362
294.0 -0.0585259005819208 -0.0902690734306675 -0.0317431776182303 0.0743974876999969 -0.0133913437033794 -0.0610061057293219 0.0790621427511768 0.0164713850931787 -0.0399164046046185 -0.0670231559066252 -0.072680542630856 -0.0748037885753342
295.0 -0.0583576351588683 -0.0899514785909468 -0.0315938944067992 0.0741545572320302 -0.0133818612235666 -0.060772676308215 0.078773528854908 0.0164572246727338 -0.0397938424669608 -0.0668356984931542 -0.0724814470122875 -0.0745987998222309
296.0 -0.0581812502261712 -0.0896212176945145 -0.0314399937104557 0.0739012098845118 -0.0133706235461087 -0.0605306247159491 0.0784763337742882 0.0164399398094978 -0.0396656822323294 -0.0666380798707181 -0.0722710927763412 -0.0743821609657895
297.0 -0.0579968037691442 -0.0892783713110243 -0.0312815810514875 0.0736375994053724 -0.0133576089331898 -0.0602800102291889 0.0781710335736856 0.0164198819984771 -0.039531874458028 -0.0664303782568751 -0.0720497024412339 -0.0741540903932693
298.0 -0.0578045197164388 -0.0889231264763299 -0.0311186622340835 0.0733638534643906 -0.0133429517521234 -0.0600209118833005 0.0778578248147234 0.0163974747883504 -0.03939229665192 -0.0662126824378849 -0.0718172450026876 -0.0739146520124688
299.0 -0.0576044648285975 -0.0885555794776856 -0.0309511917269173 0.0730800377867855 -0.0133266241373422 -0.0597533703661963 0.0775368572079431 0.0163728877053281 -0.0392471768704302 -0.0659851836795622 -0.0715740926543818 -0.073664121320332
300.0 -0.0573967219937351 -0.0881758284037461 -0.0307791460901708 0.0727862832470406 -0.013308757301554 -0.059477503662994 0.0772085474608099 0.0163462565419481 -0.0390963414023048 -0.0657479319274124 -0.0713203884846446 -0.0734027371831689
301.0 -0.0571813824025435 -0.0877839722705388 -0.0306026102955954 0.0724826572201775 -0.0132893702745404 -0.0591932754744673 0.0768729160195535 0.0163180878793185 -0.0389397493392391 -0.0655010984517814 -0.071056206156263 -0.0731305255321641
302.0 -0.0569585415199345 -0.087380013532788 -0.0304215310484728 0.0721692914300086 -0.0132684728529548 -0.058900764152262 0.076530313045544 0.0162884484311954 -0.0387774281407359 -0.0652447714237395 -0.0707817291493913 -0.0728477423136579
303.0 -0.0567282484918557 -0.0869641960510019 -0.0302359779510608 0.0718462051694353 -0.0132461185995371 -0.0586000585516672 0.0761808217653755 0.0162574695809673 -0.038609391943123 -0.0649790447536778 -0.0704971974788673 -0.0725546163291843
304.0 -0.0564906256576754 -0.0865364998080504 -0.0300458897963272 0.0715135539286472 -0.0132223350887285 -0.0582912044159541 0.0758245820633514 0.0162256556398842 -0.0384355509851524 -0.0647040638259868 -0.0702026376671452 -0.072251168328517
305.0 -0.0562457359984833 -0.0860970600570671 -0.02985133211322 0.0711713692356286 -0.0131971850353879 -0.0579742252940515 0.0754616659528063 0.0161929751144441 -0.0382560531345993 -0.0644199034854811 -0.0698982574455946 -0.0719376515905727
306.0 -0.0559936119373476 -0.0856459464272307 -0.0296523386364613 0.0708197643599078 -0.0131706036868059 -0.0576491818284587 0.0750922560647457 0.0161597514271115 -0.0380707804373005 -0.0641265537433901 -0.0695841637556538 -0.0716141965049583
307.0 -0.0557343186852313 -0.085183291802808 -0.0294489267329017 0.0704587976133629 -0.0131427032659534 -0.0573161052383225 0.0747162038219799 0.0161260540391204 -0.0378796721696979 -0.0638243005735912 -0.0692605572095397 -0.0712809672357982
308.0 -0.0554679383325154 -0.0847090675547499 -0.0292411538624671 0.0700884990153217 -0.013113395987854 -0.0569751086341794 0.0743335782941007 0.0160919672289188 -0.0376829881870756 -0.0635132426779065 -0.0689275896030656 -0.0709381453345542
309.0 -0.0551944646204933 -0.084223501541439 -0.029029001086535 0.0697089810586465 -0.01308273369896 -0.0566262502460577 0.0739446091160166 0.0160578254997514 -0.0374805226290763 -0.0631933338299455 -0.0685852905623273 -0.0705857757457207
310.0 -0.0549139913658631 -0.0837265655077487 -0.0288125556941016 0.0693203016553828 -0.0130506945707968 -0.0562695600511483 0.0735491233890873 0.0160235584592287 -0.037272412114271 -0.062864889867587 -0.0682339664551892 -0.0702241727231714
311.0 -0.0546265668660612 -0.0832184389851991 -0.0285918626221006 0.0689224906190221 -0.0130173158852862 -0.0559051505206212 0.0731470806233465 0.0159893724656987 -0.0370586299360543 -0.0625279278281119 -0.0678735324049878 -0.0698534010080911
312.0 -0.054332167465557 -0.0826991658784057 -0.0283669935237132 0.0685156603364608 -0.0129825683160399 -0.0555330795553545 0.0727385084936606 0.0159551796763191 -0.0368393564231349 -0.0621825050017816 -0.0675043328715544 -0.0694736394877367
313.0 -0.0540308780250519 -0.0821688658284656 -0.0281379852864555 0.0680998686651922 -0.0129464367656455 -0.0551534254824507 0.0723230330923473 0.015921225985193 -0.0366144418130859 -0.0618288449594295 -0.0671264966656541 -0.0690849802544124
314.0 -0.0537226937120181 -0.0816276489467413 -0.0279049539389771 0.0676751939099844 -0.0129088649424987 -0.0547662771445636 0.0719008500842196 0.0158874439027378 -0.0363840030846917 -0.0614670142773913 -0.0667400900998933 -0.0686876647952663
315.0 -0.0534077090773594 -0.081075620438627 -0.0276679592135692 0.067241676382633 -0.0128698723866811 -0.05437177731718 0.0714718176019749 0.0158538957236049 -0.0361481489787391 -0.0610971442683107 -0.0663452443511462 -0.0682817203907072
316.0 -0.0530859242771263 -0.0805129315032528 -0.0274270803801577 0.0667994338746285 -0.0128294206381918 -0.0539699995020342 0.0710357655726979 0.0158206135174793 -0.0359068384369611 -0.0607192540134171 -0.0659420754694671 -0.0678673551623045
317.0 -0.0527572908722943 -0.0799397084982587 -0.0271824552861278 0.066348527025784 -0.0127874413782163 -0.0535610785770094 0.0705925579224034 0.01578751675532 -0.0356602443997391 -0.0603336929713699 -0.065530885794967 -0.0674447732910943
318.0 -0.0524219294842238 -0.0793560649927263 -0.0269341548961957 0.0658890355732233 -0.0127438994357915 -0.0531450839781031 0.070142124599333 0.0157546610189814 -0.0354085529366085 -0.0599403984489228 -0.0651115883774694 -0.0670140313714202
319.0 -0.0520798536902032 -0.0787621079721059 -0.0266822642628112 0.0654210005661282 -0.0126988252240407 -0.0527221484901313 0.069684186943593 0.0157219293642777 -0.0351515687211963 -0.059539629287352 -0.0646844780899875 -0.0665753040964928
320.0 -0.0517310704799071 -0.0781580380712718 -0.0264269727296002 0.0649445401756002 -0.0126520403223941 -0.0522924860296472 0.0692188440960869 0.0156893586263139 -0.0348894823143962 -0.0591314217010826 -0.0642496096963155 -0.066128681399495
321.0 -0.0513756319710252 -0.0775440070977016 -0.0261683777718729 0.0644598122755987 -0.0126036469562409 -0.0518561582029011 0.0687457589403061 0.0156567736905974 -0.0346224888568958 -0.0587159884109727 -0.0638072539860053 -0.0656744036560448
322.0 -0.0510135649940773 -0.076920141722216 -0.0259065780899028 0.0639668496212881 -0.0125535036744253 -0.0514133422832654 0.0682649034845946 0.015624181445787 -0.0343506402890099 -0.0582933904077214 -0.0633574048051709 -0.0652125460936888
323.0 -0.050644931880947 -0.0762867012332047 -0.0256417700533026 0.0634658146333171 -0.0125015861763473 -0.0509642265709265 0.0677760692412286 0.0155913428414078 -0.034074011869305 -0.0578637561284509 -0.0629003015825528 -0.0647432444787695
324.0 -0.0502697647204867 -0.0756438191139897 -0.0253741032737655 0.0629567909268749 -0.0124478334325422 -0.0505089565233855 0.0672790033213134 0.015558231851466 -0.0337927393800927 -0.0574272972514938 -0.0624360190582386 -0.0642667142627489
325.0 -0.0498880800322431 -0.0749917096407198 -0.0251036062529885 0.0624399185863161 -0.0123922140246513 -0.0500476555424549 0.0667738181328282 0.0155246895195331 -0.0335069412423361 -0.0569841712695704 -0.0619646442282639 -0.0637830178420584
326.0 -0.0494999833593046 -0.0743305801628475 -0.0248305847799882 0.0619152697279629 -0.0123346632589422 -0.0495805812336178 0.0662602804279595 0.0154905854944623 -0.033216775458625 -0.0565345077803011 -0.0614864644755447 -0.0632923328968603
327.0 -0.0491054319972083 -0.0736606344639183 -0.024555196276907 0.0613830270358397 -0.0122750993113075 -0.0491079147331852 0.0657383186486003 0.0154558041512892 -0.0329222748503437 -0.0560784220207302 -0.0610014821885653 -0.0627947508980393
328.0 -0.048704598038864 -0.0729821230110854 -0.0242775217856713 0.0608433815955714 -0.0122135285775332 -0.0486298463300096 0.0652077018787391 0.0154201404074619 -0.032623698910951 -0.0556160703543457 -0.0605099411937327 -0.0622905130128325
329.0 -0.0482974730400824 -0.0722952717851625 -0.0239977971046236 0.0602963832599004 -0.0121498573114906 -0.0481465225053699 0.0646684567994155 0.0153833916464501 -0.0323211327099802 -0.055147581797432 -0.0600119184950818 -0.0617795978375965
330.0 -0.0478841496924613 -0.0716003426805985 -0.0237161921436198 0.059742251770778 -0.0120839887327128 -0.0476582612655662 0.0641204030687593 0.0153453565212475 -0.0320147655998516 -0.0546732168458381 -0.0595076478122225 -0.0612623339891193
331.0 -0.0474646757142282 -0.070897519041692 -0.0234328428927009 0.0591811002527668 -0.0120159215373561 -0.0471651778029168 0.0635635934037017 0.0153059798964865 -0.031704743579763 -0.054193061085134 -0.0589972009461458 -0.060738745083346
332.0 -0.0470391727097521 -0.0701871378520614 -0.0231479649184905 0.0586131325011956 -0.0119456065348334 -0.0466675254966045 0.0629979579045362 0.015264990791327 -0.0313911418110355 -0.053707207094679 -0.0584807604185415 -0.0602090373553566
333.0 -0.0466077032817405 -0.0694693725930299 -0.0228617177154262 0.0580385504699242 -0.0118729698821555 -0.0461655318265743 0.0624233150283664 0.0152221526643781 -0.0310741930646388 -0.0532158480929997 -0.0579583716733833 -0.05967331697629
334.0 -0.0461703481778278 -0.0687446522094135 -0.022574328950345 0.0574575066454519 -0.0117980220838393 -0.0456594594590378 0.0618399109512679 0.0151773922619782 -0.0307540656919175 -0.0527192776276705 -0.0574302521829601 -0.0591316871230881
335.0 -0.0457272460061331 -0.0680131975247481 -0.0222859643469518 0.0568702250868846 -0.0117206715089569 -0.0451495406549616 0.0612475812900994 0.0151304292758732 -0.0304308948805812 -0.052217501260781 -0.0568965139033979 -0.0585843949893411
336.0 -0.0452784681230031 -0.0672752677784836 -0.0219968062595904 0.056276869660644 -0.0116408709853204 -0.0446360405418579 0.060646386977448 0.0150810708822199 -0.0301047987454882 -0.0517107644525308 -0.056357360028507 -0.0580315193125308
337.0 -0.0448241483018618 -0.0665311905061879 -0.0217070456041642 0.0556776702842926 -0.0115585962283857 -0.0441191441284269 0.0600364564205196 0.01502912077535 -0.0297760806897234 -0.0511991935674015 -0.0558129922024812 -0.0574731976659372
338.0 -0.0443644524488441 -0.0657812798833477 -0.021416877704122 0.0550728908789434 -0.0114738347363138 -0.0435990922164112 0.0594178072048055 0.014974477895849 -0.0294447513490566 -0.0506830477360771 -0.0552634657136821 -0.0569096464312452
339.0 -0.04389951449285 -0.0650258917269541 -0.0211264031132253 0.0544627158322341 -0.0113865800730783 -0.0430761543301694 0.0587905454221492 0.0149168476208834 -0.0291111558343705 -0.0501623633219718 -0.054708954582992 -0.0563409770031309
340.0 -0.0434294033813343 -0.0642653062525914 -0.0208359647133544 0.0538473856261809 -0.0112967318866513 -0.0425506147806461 0.0581547742086708 0.0148560297573731 -0.0287754232915959 -0.0496374986807244 -0.054149645436195 -0.0557673437670066
341.0 -0.0429543486863282 -0.0634999103138359 -0.0205455934642152 0.0532271211011846 -0.0112043840732469 -0.0420227169716552 0.0575107407369452 0.0147919697639992 -0.0284376202058845 -0.049108492738031 -0.0535856828687991 -0.0551888747208305
342.0 -0.0424744685929825 -0.0627299515847444 -0.0202554993815027 0.0526021815053773 -0.0111094879325169 -0.0414927317671179 0.0568586207723556 0.0147244940044618 -0.0280979263622979 -0.0485755596105291 -0.0530172383582171 -0.0546057813168509
343.0 -0.0419899209824892 -0.0619558486856666 -0.0199658876213608 0.0519728943787963 -0.0110120183932103 -0.0409608956482343 0.0561985048000463 0.0146534645703222 -0.0277565798734167 -0.0480388095268339 -0.0524444487014788 -0.0540182209313983
344.0 -0.0415009326911765 -0.0611778656443976 -0.0196769123188454 0.0513394283411492 -0.0109120110678467 -0.0404274273957596 0.0555307790378689 0.0145785678686335 -0.0274138488792013 -0.0474985903495023 -0.0518675784000105 -0.0534263716215351
345.0 -0.0410076690151979 -0.0603964295002961 -0.0193887983817497 0.0507020642763805 -0.0108094357706192 -0.039892633716867 0.054855593793885 0.0144998365371801 -0.0270697258617389 -0.0469549841216847 -0.0512867151014793 -0.0528304220908963
346.0 -0.040510312088791 -0.0596118571346771 -0.0191015645553248 0.0500610923434227 -0.0107043740004012 -0.0393567210257321 0.0541731720057267 0.0144170447813019 -0.0267244980669205 -0.0464081786378 -0.0507020494855452 -0.0522304694853211
347.0 -0.0400091012339072 -0.0588245542768696 -0.0188154630865463 0.0494168074760311 -0.0105968191939743 -0.0388199896631335 0.053483871039914 0.014330173399183 -0.0263783133707687 -0.0458584161336971 -0.0501137767540375 -0.0516267578935492
348.0 -0.0395042566937386 -0.0580347783182887 -0.0185305267950513 0.0487695070660707 -0.0104868650112717 -0.0382826427657861 0.0527881174678187 0.0142391639862457 -0.0260313449395267 -0.045305821313941 -0.0495220459174672 -0.0510194129740259
349.0 -0.03899594037025 -0.0572430014012023 -0.0182470636927594 0.0481194897708568 -0.0103744626303063 -0.0377450275065712 0.0520860823717527 0.0141439379560796 -0.0256836334009244 -0.0447505554159601 -0.048927079245479 -0.0504086934939632
350.0 -0.0384844296890493 -0.0564495636261918 -0.0179651353074578 0.0474670063798066 -0.0102596839559268 -0.0372073226123096 0.0513782419808654 0.0140443092938176 -0.0253354907865374 -0.0441929925619747 -0.0483290882026287 -0.049794781187738
351.0 -0.0379699159899747 -0.0556547371179327 -0.0176848218334051 0.0468123315589973 -0.0101425660052096 -0.0366697656507926 0.0506647929416105 0.0139402792765357 -0.0249870777322179 -0.0436331797944177 -0.0477282786909429 -0.0491778666520904
352.0 -0.0374526918534398 -0.05485895308411 -0.0174062130744788 0.0461558493050834 -0.0100232491331825 -0.0361325759621596 0.0499465157598817 0.0138319941197611 -0.0246384769343305 -0.0430713354084749 -0.0471247567101024 -0.0485580965268021
353.0 -0.0369330534597939 -0.0540625790712794 -0.01712950082037 0.04549780582136 -0.00990176678002403 -0.0355960120221982 0.0492234726095873 0.0137192379800224 -0.0242898765235729 -0.0425077658613451 -0.0465188194262218 -0.0479357403804114
354.0 -0.0364111532845762 -0.0532659498528402 -0.0168547838056391 0.0448385704516592 -0.00977818468031215 -0.035060352453978 0.0484961806918538 0.0136019482590795 -0.0239414703895525 -0.0419425803997954 -0.0459106683416785 -0.0473110340272469
355.0 -0.0358873124199703 -0.0524694803690809 -0.0165821613788296 0.0441783818559096 -0.00965257549011628 -0.0345257892137986 0.0477651973812913 0.0134803838471181 -0.02359340686724 -0.0413759808228407 -0.0453004557105458 -0.0466840988660342
356.0 -0.0353617932050074 -0.0516734812726376 -0.0163116846852075 0.04351765401393 -0.00952505424422204 -0.0339925666800712 0.0470310036953562 0.0133544839450223 -0.0232457138010675 -0.0408082165759856 -0.0446884539916355 -0.0460552399904142
357.0 -0.0348348762515797 -0.0508783550862755 -0.0160434285740429 0.0428566000451803 -0.00939572383069725 -0.0334608591797263 0.0462938957842733 0.013224217253018 -0.0228987936804074 -0.0402395616334522 -0.0440749004872073 -0.0454246629839059
358.0 -0.034306803059205 -0.0500844060700103 -0.0157775286169395 0.0421955722617225 -0.00926463236504166 -0.0329309505348231 0.0455543172242338 0.0130896161771415 -0.0225525140738436 -0.0396700600002032 -0.0434600144007035 -0.0447925707209405
359.0 -0.0337778920308209 -0.0492919849362854 -0.0155140546070263 0.0415349461135012 -0.00913192591582259 -0.0324030353781343 0.0448129815647003 0.0129509399970279 -0.0222070979209963 -0.0391000739657955 -0.0428440056181788 -0.0441592132006538
360.0 -0.0332484526403775 -0.0485015633502713 -0.0152530424742526 0.0408750119232705 -0.00899770393975328 -0.0318773109465769 0.0440702561455024 0.0128081766334123 -0.0218627570313285 -0.0385297900392114 -0.0422270792290377 -0.0435249132016407
361.0 -0.0327187412457648 -0.047713335608856 -0.0149945592349465 0.0402160647091222 -0.00886210497263429 -0.031353927298338 0.0433267182304155 0.0126614169065321 -0.0215195519263474 -0.0379594497945487 -0.0416095348920581 -0.0428897883730277
362.0 -0.0321891324184654 -0.0469277898922015 -0.0147386393895424 0.0395584504256983 -0.00872523914907032 -0.0308332042811328 0.0425828105566056 0.0125107560905866 -0.0211777563597124 -0.037389274634419 -0.0409916724315768 -0.0422541903974982
363.0 -0.0316597704709155 -0.0461451289992191 -0.014485349218445 0.0389024442113825 -0.00858720198254873 -0.0303152580352521 0.0418391006835194 0.0123564373107836 -0.0208372686647588 -0.0368194270576637 -0.040373597679721 -0.0416183488429082
364.0 -0.0311310693316012 -0.0453657969676066 -0.0142347228432306 0.0382484303059756 -0.00844815909048819 -0.0298002939085407 0.0410959778331123 0.0121984401714559 -0.0204984246577177 -0.0362501847971664 -0.0397556562357074 -0.0409825274503394
365.0 -0.0306032420935561 -0.0445900709101723 -0.0139868263492651 0.0375966550379462 -0.00830820058573167 -0.0292884661347436 0.0403540790535781 0.0120370938083038 -0.0201612516608536 -0.035681787870313 -0.0391380745355844 -0.0403469590341083
366.0 -0.0300766410552379 -0.0438182875638038 -0.0137415967189977 0.0369474392962064 -0.0081675135650916 -0.0287799511530996 0.039613877859484 0.0118724706237719 -0.0198258607785632 -0.03511445687831 -0.0385211632275192 -0.0397119090065955
367.0 -0.029551544620867 -0.0430507658408856 -0.0134991955880302 0.036301142353862 -0.00802618949526829 -0.0282749853537381 0.0388758606159597 0.0117047534491823 -0.019492406246821 -0.0345484024267903 -0.037905130754536 -0.0390776595618727
368.0 -0.0290282416727981 -0.0422878154776345 -0.0132595606093247 0.035658046205727 -0.00788436765068853 -0.0277736904318107 0.0381404232649665 0.0115340849266296 -0.019161015986654 -0.0339839270143216 -0.037290278501878 -0.0384445500526946
369.0 -0.0285070750069563 -0.0415297900056772 -0.013022708205587 0.0350184415826164 -0.00774219250975858 -0.0272762260754802 0.0374082548335606 0.0113607810859774 -0.0188317073332651 -0.0334211863691024 -0.0366768101439572 -0.0378128036993907
370.0 -0.0279882696162375 -0.0407769199447175 -0.0127886468313312 0.0343825751933346 -0.00759981608186267 -0.0267827715319548 0.0366797100372798 0.0111849075827016 -0.0185046832883683 -0.0328604547384461 -0.0360650246111043 -0.0371826809752953
371.0 -0.0274720868865045 -0.0400295665645746 -0.0125574778777155 0.033750816641953 -0.00745732147434056 -0.0262935161175646 0.0359552626021133 0.0110067408134616 -0.0181800483585447 -0.0323019218259848 -0.0354552213526469 -0.0365544615318282
372.0 -0.0269589039776725 -0.0392879643686232 -0.0123291079834766 0.033123404722373 -0.0073149067333348 -0.0258085087742076 0.0352353990020322 0.0108265201077468 -0.0178578563444513 -0.0317458308504424 -0.0348476515657352 -0.0359284348934099
373.0 -0.0264489150540796 -0.0385524281581415 -0.0121035376049989 0.0325006564446632 -0.00717267866620294 -0.0253279687749264 0.0345206122737503 0.0106444171932698 -0.0175383290204508 -0.0311924525804547 -0.0342425416069898 -0.035304895667145
374.0 -0.0259424141502095 -0.0378232655529225 -0.0118808640159521 0.0318828320463559 -0.00703078444484028 -0.0248520575222468 0.0338112532744431 0.010460568995916 -0.0172213379606038 -0.030642023448168 -0.0336402020836877 -0.0346841410767366
375.0 -0.0254396981949766 -0.037100683436964 -0.0116609917353636 0.0312701625381181 -0.0068893532055764 -0.0243808095878616 0.0331078422631502 0.0102752886028078 -0.0169072052052957 -0.0300947622090847 -0.033040986975883 -0.0340664211735691
376.0 -0.024940968568646 -0.0363849338735523 -0.0114439686477379 0.0306629124037998 -0.00674849024410819 -0.02391443684694 0.0324107926306348 0.0100889021590237 -0.0165959024655373 -0.0295508785186573 -0.0324450299954129 -0.0334520587631356
377.0 -0.0244465230205071 -0.0356762436652003 -0.0112297708849643 0.0300613633594596 -0.00660837591767042 -0.0234529998548147 0.0317203657124672 0.00990144656386498 -0.0162875607360562 -0.0290105288282144 -0.0318526425747871 -0.0328412685471299
378.0 -0.0239565633531599 -0.0349749236487333 -0.0110183861595866 0.0294657089536874 -0.00646906911176966 -0.0229966753438387 0.0310370842007519 0.00971324648529644 -0.0159822474537763 -0.0284740362767016 -0.0312640335608145 -0.032234355132798
379.0 -0.023471339013954 -0.0342811823642983 -0.0108098566653038 0.0288762429039761 -0.00633073114331371 -0.0225455542969585 0.0303611686613692 0.00952440113735998 -0.0156800943743779 -0.027941615737476 -0.0306795530659694 -0.0316315723726197
380.0 -0.0229910754587018 -0.0335952242084175 -0.010604155604342 0.0282931164179706 -0.006193440207343 -0.0220997320721371 0.0296930722785662 0.00933527211998368 -0.0153810722878082 -0.027413426348077 -0.0300994298497538 -0.0310331965095562
381.0 -0.0225159857922183 -0.0329172514444487 -0.010401269181036 0.0277166014157744 -0.00605735300562893 -0.0216593062796241 0.0290330768738533 0.00914601162357247 -0.0150853602339852 -0.0268896955916083 -0.0295239272371037 -0.0304394667939719
382.0 -0.022046276760946 -0.032247465237583 -0.0102011951452247 0.027146886402957 -0.00592254535731017 -0.0212243756891608 0.0283815216081879 0.00895688237028898 -0.0147930018644446 -0.0263706376165477 -0.0289532293087413 -0.0298506519515656
383.0 -0.0215821518379967 -0.0315860661876682 -0.010003922634639 0.0265841169427519 -0.0057891242216686 -0.020795039667402 0.0277386781225215 0.00876798079569572 -0.0145040681706361 -0.0258564111872621 -0.0283875763886804 -0.0292670358821269
384.0 -0.0211238613307109 -0.0309332546035098 -0.00980943635344126 0.0260285620494836 -0.00565720773719509 -0.0203713978882979 0.0271047832980743 0.00857951665932563 -0.0142186927381327 -0.0253472921141036 -0.0278272862747016 -0.0286889102971644
385.0 -0.0206714370601889 -0.0302891821247227 -0.00961774783498023 0.0254803116940877 -0.00552684701846874 -0.0199535016646354 0.0264802016796146 0.00839185995127293 -0.0139367987795619 -0.0248433738666466 -0.0272725225711361 -0.0281163768522696
386.0 -0.0202251865242971 -0.0296539753357113 -0.00942879994152969 0.0249395577522577 -0.00539818482606612 -0.0195414259319261 0.025865023898402 0.00820505558672563 -0.0136585893610933 -0.0243449471604264 -0.0267235150606207 -0.0275497304771917
387.0 -0.0197851709861851 -0.0290278449610171 -0.00924268455662268 0.0244064960415489 -0.00527124128274955 -0.0191353063061707 0.025259490689429 0.00801930620994217 -0.0133840719837704 -0.0238521131383009 -0.0261804790754474 -0.0269892200423731
388.0 -0.0193515675425943 -0.0284108509636225 -0.00905926460892174 0.0238811788507315 -0.00514615289818202 -0.0187350670452742 0.0246638715426906 0.00783480833026774 -0.0131132505091784 -0.0233650694273408 -0.0256436225087783 -0.0264350221872703
389.0 -0.0189245158834206 -0.0278031697709348 -0.00887863935098542 0.0233638271758395 -0.00502293657711553 -0.0183409117535216 0.0240782566740007 0.00765174074294685 -0.0128461754446461 -0.0228839662865868 -0.0251131494240636 -0.025887421924446
390.0 -0.0185041364412764 -0.0272049407282724 -0.00870079195156192 0.0228545062676853 -0.00490166409739268 -0.0179528482089818 0.0235027895657578 0.00747021490065958 -0.0125830183497497 -0.0224089781090749 -0.0245892133938336 -0.0253465174608315
391.0 -0.0180904912156413 -0.0266161385327767 -0.008525631262903 0.0223532982371647 -0.00478243063393826 -0.0175708804158543 0.0229376896416989 0.0072904531457831 -0.0123236734670168 -0.0219401946734558 -0.0240719905169298 -0.0248124563927034
392.0 -0.0176837576823243 -0.0260369927551745 -0.00835321225222069 0.0218603423942125 -0.00466527062760457 -0.0171951074742468 0.022383021343208 0.00711262816482809 -0.0120682804292641 -0.0214778077564338 -0.0235616684888826 -0.0242855087810099
393.0 -0.0172839786876475 -0.0254675730605852 -0.00818358262473155 0.0213757589758347 -0.00455018725295476 -0.0168255804015289 0.0218388178451219 0.00693673181919518 -0.0118168626009989 -0.0210219646052435 -0.0230584409752725 -0.0237659106935754
394.0 -0.0168912248085318 -0.0249078667936977 -0.00801664078905017 0.0208995128420912 -0.0044372840349304 -0.0164622769424089 0.0213052903034994 0.00676299766394568 -0.0115694320104193 -0.0205726925043435 -0.0225624076763798 -0.0232536866209063
395.0 -0.0165055808977879 -0.0243579644781972 -0.00785237811270529 0.0204317314607963 -0.00432659000915385 -0.0161051856397202 0.0207824989034703 0.00659163326956786 -0.0113259948497185 -0.0201301025386678 -0.0220736684379065 -0.0227489462095923
396.0 -0.0161270421188255 -0.0238179612356162 -0.00769091630198161 0.0199724804531964 -0.00421805704818126 -0.0157544461533203 0.0202702805512848 0.00642254656530112 -0.0110866513453975 -0.0196944459728915 -0.0215924687384996 -0.0222519885031999
397.0 -0.0157557515398174 -0.0232878575157681 -0.0075321336384851 0.0195217936015291 -0.0041117962299047 -0.0154099848229175 0.0197687938820368 0.006255893933841 -0.0108514045753402 -0.0192657066015973 -0.0211188379134171 -0.0217628218931902
398.0 -0.015391637255094 -0.02276765355022 -0.00737599657242365 0.0190796397777465 -0.00400782107050979 -0.0150718122470821 0.0192781205620879 0.00609189658814409 -0.0106201590853408 -0.0188438760821324 -0.0206528395839977 -0.0212815477382617
399.0 -0.0150348078052368 -0.022257446496904 -0.00722261398248572 0.0186460999956505 -0.00390609486079132 -0.0147400309207463 0.0187981570757234 0.00593055196359191 -0.0103930598124036 -0.0184292412358063 -0.0201946520609939 -0.0208082667378807
400.0 -0.0146852705482718 -0.0217571408152652 -0.0070718866581647 0.0182211674423045 -0.00380668118552764 -0.0144144995315165 0.0183288501323912 0.00577189270345449 -0.0101700843323057 -0.0180217071232642 -0.0197443671399221 -0.0203431277714972
401.0 -0.0143429807527976 -0.0212667843591346 -0.00692385571204102 0.0178048386103653 -0.00370954485146547 -0.0140953394083088 0.0178702693364938 0.00561609087464836 -0.00995123080478588 -0.0176214189465591 -0.0193019350389815 -0.0198861589638447
402.0 -0.0140079153908026 -0.0207863532446108 -0.00677845982622207 0.0173971116942302 -0.00361471626025285 -0.0137824189345852 0.0174223049627432 0.00546313316766711 -0.00973645946697762 -0.0172283058985567 -0.0188674756882627 -0.019437423313076
403.0 -0.013680111126679 -0.0203158836954683 -0.0066357838803285 0.0169979857643632 -0.00352214798768468 -0.0134758159113898 0.0169849005238587 0.00531307095392377 -0.00952586144323103 -0.0168425256047315 -0.0184411478672638 -0.0189970017704034
404.0 -0.0133594897967707 -0.019855248801858 -0.00649574542059601 0.0166073633035132 -0.00343186899077275 -0.0131754733524779 0.0165579784204668 0.00516598405104656 -0.00931937205041651 -0.0164641106923264 -0.0180228392392464 -0.0185648874906689
405.0 -0.0130461082006472 -0.0194043832297773 -0.00635830685123511 0.0162252426285355 -0.00334388932483602 -0.0128813619209662 0.0161414016651932 0.00502182136287717 -0.00911701136054107 -0.0160929809193347 -0.0176126375306188 -0.0181411254693015
406.0 -0.0127398500210103 -0.0189633503835838 -0.0062235458564129 0.0158515743535761 -0.00325813653544096 -0.0125934665140392 0.0157352938135013 0.00488077977384259 -0.0089187120758263 -0.015729192015378 -0.0172105393841374 -0.0177257873895961
407.0 -0.0124406553769704 -0.0185319888268063 -0.00609138113003558 0.0154862845351214 -0.00317462184194156 -0.0123116823179509 0.0153392817982938 0.00474269863676144 -0.00872451232998527 -0.0153727726704221 -0.0168165915908317 -0.0173188131158514
408.0 -0.0121484934414625 -0.0181103124896365 -0.00596185815005388 0.0151293836259374 -0.00309331220464502 -0.0120361009319942 0.0149532706009616 0.00460768447494094 -0.00853440749481748 -0.0150236891348849 -0.016430769719663 -0.0169202687285437
409.0 -0.0118633483445162 -0.0176982315047059 -0.00583487903040767 0.014780779968455 -0.00301423428193011 -0.011766575434631 0.014577356863397 0.00447571934822125 -0.00834836122414367 -0.0146819240342657 -0.0160530611933764 -0.0165300912076049
410.0 -0.0115850663580889 -0.0172956025689981 -0.005710524380999 0.0144403293380507 -0.00293727564736465 -0.0115030787090734 0.0142112507019441 0.00434687165186937 -0.00816629173155005 -0.0143474684240602 -0.0156834110177605 -0.0161482966292609
411.0 -0.0113136168613607 -0.0169023519092033 -0.00558873866160114 0.0141079574869654 -0.00286244149826996 -0.0112455482760654 0.0138546573245617 0.00422102618619024 -0.00798826365545958 -0.0140202691802203 -0.0153218394008032 -0.0157747962309354
412.0 -0.0110489355711774 -0.0165183930269893 -0.00546949813168597 0.0137836261919778 -0.00278971025058032 -0.0109939519708862 0.0135077160865807 0.00409825949985181 -0.00781417926987387 -0.0137002989541462 -0.0149683082263461 -0.0154095928364461
413.0 -0.0107909408747999 -0.0161436813924612 -0.00535278571754168 0.0134672672561687 -0.00271906594074454 -0.0107482247155716 0.0131701590934968 0.00397849455413407 -0.00764404648805564 -0.0133875921859636 -0.014622749352587 -0.0150526393801524
414.0 -0.0105394937187475 -0.015778048523264 -0.00523857322176814 0.0131587485326077 -0.00265045668320025 -0.010508284488209 0.0128417513927849 0.003861730504499 -0.00747783056831513 -0.0130820210475896 -0.0142850791803296 -0.0147038631130015
415.0 -0.0102945225173988 -0.015421310644883 -0.00512679760880325 0.012857904952489 -0.00258385576692793 -0.010274040544033 0.0125226146261818 0.00374809306650918 -0.00731537291926392 -0.0127834226935888 -0.013955206152813 -0.014363178063955
416.0 -0.0100559176389774 -0.0150734701877421 -0.00501754772593643 0.0125647000566953 -0.00251918151381969 -0.0100454946864177 0.0122121321445909 0.00363728791607627 -0.00715681508609669 -0.0124919073675294 -0.0136331801747508 -0.0140305399745725
417.0 -0.00982359353272733 -0.0147343828449589 -0.00491076742166469 0.0122789695177596 -0.00245641128320693 -0.00982255565696744 0.0119103746479918 0.00352942068588442 -0.00700206497136124 -0.0122073862654254 -0.0133189298986886 -0.0137059260603255
418.0 -0.00959749160076397 -0.0144038772877068 -0.00480635500979487 0.0120006772582101 -0.00239556738308061 -0.0096050939923641 0.0116172814944664 0.00342446327340333 -0.00685101693946771 -0.0119297166316965 -0.0130122245170602 -0.0133891790335127
419.0 -0.00937741671069705 -0.0140817682760892 -0.00470433577260009 0.0117296106276934 -0.00233653999933709 -0.00939304304406298 0.0113325303490067 0.00332244973063062 -0.00670359720079444 -0.0116587764554963 -0.0127130907667338 -0.0130802179214191
420.0 -0.00916328296293135 -0.0137679604474221 -0.00460468876200432 0.0114656601524466 -0.00227929685865309 -0.00918632968547873 0.0110558582327676 0.00322316954676026 -0.00655984539894809 -0.0113945999635805 -0.0124213968539398 -0.0127789525194126
421.0 -0.00895499276450952 -0.0134623561890252 -0.0045073692302519 0.0112086724359559 -0.00222381164264325 -0.00898486775121719 0.0107872753206372 0.00312672298273047 -0.00641963638463086 -0.0111370106986616 -0.0121369778916823 -0.0124852393508514
422.0 -0.00875247161427251 -0.0131648082105462 -0.00441234928897588 0.0109586655474346 -0.00217006109856236 -0.00878858377116599 0.0105266412926326 0.00303305491092169 -0.00628295910147945 -0.010885966338759 -0.0118598460338007 -0.012199053072402
423.0 -0.00855554530433872 -0.0128751921666089 -0.00431966310042652 0.0107154061922289 -0.00211794106896424 -0.00859743021856912 0.0102734957562482 0.00294199139320241 -0.00614980785760728 -0.0106413480575259 -0.0115899104984491 -0.0119202835984341
424.0 -0.00836412415137589 -0.0125932984853378 -0.00422919239734071 0.0104787257493981 -0.00206746586003317 -0.00841125647601227 0.0100277618123641 0.00285353021995753 -0.00602007783213856 -0.0104030946823988 -0.0113269789924722 -0.0116487286980806
425.0 -0.00817806494711052 -0.0123189707584301 -0.0041409102585266 0.0102485374118027 -0.00201857490958027 -0.00822994618919865 0.00978948235573346 0.00276780610787128 -0.00589361802389554 -0.010170995199718 -0.0110709040027629 -0.0113842842615969
426.0 -0.0079972357437749 -0.0120520799465307 -0.0040548319363984 0.0100246606363638 -0.00197120307625109 -0.00805344916206369 0.0095583010178411 0.00268461670153839 -0.0057704331794177 -0.00994501860927763 -0.0108216095886298 -0.0111268966926203
427.0 -0.00782157831768583 -0.0117925110999936 -0.00397091676363647 0.009807036441901 -0.00192533138066753 -0.00788170558980008 0.00933391789143078 0.0026037704922532 -0.005650564557742 -0.00972510043261294 -0.010579056655319 -0.01087639284132
428.0 -0.00765098021200651 -0.0115401080032854 -0.00388910984089239 0.00959553257386899 -0.00188093549631627 -0.00771459734966221 0.00911630473266392 0.00252545030239687 -0.00553385872958846 -0.00951109102933365 -0.0103430309991607 -0.0106326835690552
429.0 -0.00748529619838959 -0.0112946931969297 -0.00380938290563025 0.00938998875999745 -0.0018379592323285 -0.00755202966775265 0.00890534511077554 0.00244944943006876 -0.00542029493181398 -0.00930287940005715 -0.0101134369025429 -0.0103956259479629
430.0 -0.00732433506588832 -0.0110560297655722 -0.00373166803681964 0.00919016722914373 -0.00179633484579734 -0.00739383245546237 0.00870078986095852 0.00237586039318394 -0.00530968295378738 -0.00910025313963875 -0.00989005041973029 -0.0101650056917206
431.0 -0.00716800322981969 -0.0108239472243123 -0.00365595452795949 0.00899597953875408 -0.00175602746224082 -0.00723995211363903 0.00850240882091949 0.00230456585473291 -0.00520206072806668 -0.00890319993927086 -0.00967283389300122 -0.00994075615178203
432.0 -0.00701628162380606 -0.0105985033645124 -0.00358222231146652 0.00880739471384386 -0.00171703368386044 -0.00709036104909601 0.00831003498227689 0.00223538896240815 -0.00509743807870348 -0.00871164068326043 -0.00946170486075159 -0.00972277994188111
433.0 -0.00686901487427401 -0.0103794853407355 -0.00351047076029244 0.00862425125021259 -0.00167927413047172 -0.00694497712958015 0.00812350958900704 0.00216834056216613 -0.00499570846865428 -0.0085254473074943 -0.00925650927669171 -0.00951094929596871
434.0 -0.0067260841784256 -0.0101666768361962 -0.00344059280903664 0.00844637866961619 -0.00164274675213573 -0.00680363192254578 0.00794275576442903 0.00210343108951069 -0.00489675882873521 -0.00834444714115534 -0.00905709020582979 -0.00930508199280097
435.0 -0.00658734104097206 -0.00995991797026911 -0.00337257700716979 0.0082736309855316 -0.00160738256642672 -0.00666624842171254 0.00776769026451151 0.00204066591670594 -0.00480052124633486 -0.00816853673639388 -0.00886330863379566 -0.00910505026016338
436.0 -0.00645263138461237 -0.00975896146956098 -0.003306330125038 0.00810579718895434 -0.00157315091268647 -0.00653264627761031 0.00759790148755793 0.00197987799166764 -0.00470689283250217 -0.00799751727951473 -0.0086749571408938 -0.00891062820621408
437.0 -0.006321905000982 -0.00956371885163459 -0.00324181387129086 0.00794281231852264 -0.00154004571048394 -0.0064027666087298 0.00743329398484508 0.00192101527846581 -0.00461585458289877 -0.00783133008737937 -0.00849196290968963 -0.00872174805974734
438.0 -0.00619511178281357 -0.00937424160388514 -0.00317912983169629 0.00778467689526381 -0.0015079910505342 -0.00627668584508539 0.00727378465520741 0.00186404128479871 -0.00452745008526571 -0.00766998376502062 -0.0083143175649179 -0.00853838948752082
439.0 -0.006072104636165 -0.00919028452393683 -0.00311817989324151 0.00763119710996577 -0.00147696241005965 -0.00615422984815328 0.00711923367891294 0.00180886929709177 -0.00444157562851486 -0.00751331777654022 -0.00814184212524222 -0.008360377056027
440.0 -0.0059527253532215 -0.00901158552582926 -0.00305886017542359 0.00748215674194174 -0.0014469326087694 -0.00603522163545892 0.00696941866585273 0.00175539645140982 -0.0043581341540903 -0.00736114273443828 -0.00797433770733311 -0.00818749915257338
441.0 -0.00583687307984355 -0.00883806790926492 -0.00300119483087097 0.00733747359101452 -0.00141783913471572 -0.00591963317045995 0.00682422512817552 0.00170376872211704 -0.00427702232433026 -0.00721334173307386 -0.0078116873689718 -0.00801962742984766
442.0 -0.00572447648793073 -0.00866949811099957 -0.00294502162381511 0.00719698889354271 -0.00138972743732399 -0.00580726079426066 0.0066836377942269 0.00165393510741408 -0.00419809475356104 -0.00706971873446672 -0.00765369020141155 -0.00785658421930399
443.0 -0.00561541152247233 -0.0085058286702205 -0.00289041714813235 0.00706062091698775 -0.00136249476391305 -0.00569812096035844 0.00654729461073296 0.00160563645831995 -0.00412145126600369 -0.00693029896734627 -0.00750032525845594 -0.00769832657539805
444.0 -0.00550963372689903 -0.00834698663443756 -0.00283735290773631 0.00692831302910771 -0.00133613673610518 -0.00559216876782297 0.00641515474843161 0.00155887521748902 -0.00404705106502189 -0.00679499838090374 -0.00735150412589292 -0.00754475475851271
445.0 -0.00540702802790031 -0.0081928034449698 -0.00278578026910731 0.00679991477686189 -0.00131062198826745 -0.00548928891458384 0.0062871729284774 0.0015137254214555 -0.00397478096146207 -0.00666366696265275 -0.00720707454492819 -0.00739573008720667
446.0 -0.00530746725789542 -0.00804312925156149 -0.00273566449152619 0.00667530018670205 -0.00128590040961928 -0.00538939778271733 0.00616296679776644 0.00146990980886056 -0.00390463605611969 -0.00653620807746132 -0.00706691931627202 -0.00725110353641039
447.0 -0.00521085198664797 -0.007897838390982 -0.00268698769024841 0.00655434618340736 -0.00126193164700212 -0.00529241350969315 0.00604267430205852 0.00142763013123885 -0.00383642945328466 -0.0064124312708009 -0.00693086165851592 -0.00711072560802431
448.0 -0.00511713102683597 -0.00775670605710782 -0.00263957569226879 0.00643692147996242 -0.00123877740926383 -0.00519814354214063 0.00592615297152922 0.00138682528574725 -0.00377014256882554 -0.00629225790320545 -0.00679878145184347 -0.00697446111623799
449.0 -0.0050262003959224 -0.00761962622217995 -0.00259342616705781 0.00632291482154749 -0.00121638698160207 -0.00510652756784041 0.00581327123856915 0.00134741044495506 -0.00370574157583248 -0.0061755844154065 -0.00667058289425243 -0.00684220165104307
450.0 -0.00493791922818365 -0.00748659282178962 -0.00254867376905213 0.00621225437766142 -0.00119462266118391 -0.00501763157639611 0.00570371877453074 0.00130922549269392 -0.00364317024450778 -0.00606233808668592 -0.00654617299883494 -0.00671385743872146
451.0 -0.0048522441166598 -0.00735744262005219 -0.0025052034456492 0.00610484494627043 -0.00117352030030189 -0.00493132457385374 0.00559742800702442 0.00127228989079189 -0.00358242388707178 -0.00595243781252861 -0.00642545052403968 -0.00658932889189252
452.0 -0.00476918667872216 -0.0072320770262816 -0.00246289774380088 0.00600063266482233 -0.0011531468753057 -0.00484748575239147 0.00549445148419975 0.0012365554350905 -0.00352346127473746 -0.0058458078762591 -0.00630833423845213 -0.00646851622297531
453.0 -0.00468860733698762 -0.00711046469310579 -0.00242186116375059 0.00589953643323447 -0.00113337675216056 -0.00476615966196164 0.00539469010784422 0.0012019973097805 -0.00346625633072541 -0.00574239474264033 -0.00619475806394024 -0.00635135835681262
454.0 -0.00461036145708606 -0.00699233718202468 -0.00238197768513216 0.00580134953484111 -0.00111419377302145 -0.00468715575198053 0.00529802493445978 0.0011686803705006 -0.0034106209608465 -0.00564196707007738 -0.0060844987575545 -0.00623762977408237
455.0 -0.00453438913612618 -0.00687754174337257 -0.00234315361636656 0.00570596555057985 -0.0010956187313424 -0.00461034681417221 0.00520411817082011 0.00113649729920443 -0.00335649714849652 -0.00554441061437277 -0.00597742683658788 -0.00612720467212238
456.0 -0.00446062557216418 -0.00676595607322001 -0.00230532616862135 0.00561329087974834 -0.00107764777591857 -0.00453564310122214 0.00511305307141897 0.00110534918045091 -0.00330390354571642 -0.00544966170994652 -0.00587344653089816 -0.00601996491562105
457.0 -0.00438899373732063 -0.00665760939550558 -0.00226861342781995 0.00552330159578602 -0.00106018673734096 -0.00446311485710264 0.00502473664199436 0.001075209351618 -0.00325279638340019 -0.00535767787747865 -0.00577253764901931 -0.00591590305906004
458.0 -0.0043194830887663 -0.0065524730874758 -0.00223298885050333 0.00543598052921042 -0.00104324535982727 -0.00439273031675606 0.00493919378754518 0.00104612716178535 -0.00320320650022801 -0.00526848091576745 -0.00567468009238337 -0.00581499100975882
459.0 -0.00425204453156119 -0.00645045478297793 -0.00219841451224886 0.00535125091395799 -0.0010268141039551 -0.00432443431183941 0.00485616562090789 0.00101802224397002 -0.0031550721411737 -0.00518194619276557 -0.0055797519195908 -0.00571710756283354
460.0 -0.00418656060453189 -0.00635137592905327 -0.00216481266608902 0.00526897133971183 -0.00101087301776713 -0.00425809655068055 0.00477543153046585 0.00099076831585476 -0.00310832755080252 -0.00509794647192942 -0.00548761272345266 -0.00562209813445025
461.0 -0.00412293687436259 -0.00625504756677592 -0.00213210932383533 0.00518899622849575 -0.000995412800255262 -0.00419358203118877 0.00469705746557932 0.000964315407496174 -0.00306288550649983 -0.005016338620096 -0.00539812714628149 -0.00552982006869389
462.0 -0.00406110046649799 -0.00616137241888162 -0.00210027124783092 0.00511123608002801 -0.000980414592586588 -0.00413082125342385 0.00462107252546495 0.000938795481967825 -0.00301867199388939 -0.00493705865526906 -0.00531121094926556 -0.00544020962925851
463.0 -0.00400098960497062 -0.00607024703511614 -0.00206925706743728 0.00503561570737476 -0.000965864319370833 -0.0040697541786918 0.00454752080220176 0.000914387098845415 -0.00297554701924053 -0.00485995719264333 -0.00522673343087741 -0.0053531272616938
464.0 -0.00394257733905312 -0.00598172004928274 -0.0020391425235051 0.00496214492318141 -0.00095171640421256 -0.00401043238160082 0.00447612902657777 0.000890894461935989 -0.00293358892290104 -0.00478507377442925 -0.0051447146399824 -0.00526858845732378
465.0 -0.00388589346176264 -0.00589578738675852 -0.0020098938288689 0.00489083848293258 -0.000937998814613407 -0.00395283874566523 0.00440662551558174 0.000867949917626083 -0.00289295933338345 -0.00471246272076185 -0.00506515519399273 -0.00518657207956517
466.0 -0.00383081260459085 -0.00581227228020529 -0.00198145962612765 0.00482153901702199 -0.000924676458674926 -0.00389686256855251 0.00433902081507708 0.000845553420987004 -0.00285349400934401 -0.00464192880693795 -0.0049878904449319 -0.00510692168908943
467.0 -0.00377731389445148 -0.00573108858060216 -0.00195377466067457 0.0047541994741213 -0.000911767660383279 -0.00384243230418545 0.00427334946575783 0.000823833525193345 -0.00281521028894403 -0.00457348312455919 -0.00491289870613608 -0.00502961012122519
468.0 -0.00372521191604988 -0.00565217253013787 -0.00192696060097273 0.00468868888931342 -0.000899125135510791 -0.00378956449148171 0.00420959043390623 0.000803057280392716 -0.00277788905698762 -0.00450694701008482 -0.00484003781089975 -0.00495451179689765
469.0 -0.00367449855125396 -0.00557543308265109 -0.00190093452464531 0.00462496410070101 -0.00088678077417388 -0.00373818516186984 0.00414771833542179 0.000783121994877726 -0.00274149029060982 -0.00444224789412478 -0.00476922001508513 -0.00488153295557943
470.0 -0.00362523754790145 -0.00550068751278713 -0.00187544510947379 0.00456295922083903 -0.000874894610914347 -0.00368806701035165 0.00408762306368697 0.000763785576795994 -0.00270608072063177 -0.00437932900974862 -0.00470036133196053 -0.00481056710551895
471.0 -0.00357734042538701 -0.00542779323300403 -0.00185045030801991 0.00450256755140903 -0.000863443260333484 -0.00363912213047551 0.00402935467770263 0.000745059735114471 -0.00267152973468298 -0.0043180252787691 -0.00463331178202686 -0.00474148179310493
472.0 -0.00353071796590472 -0.005356895175443 -0.0018261759227297 0.004443806942474 -0.000852269610591789 -0.00359153330842988 0.00397259446070627 0.000726895670807398 -0.00263792050269552 -0.00425845064725532 -0.00456815912070247 -0.00467435438845085
473.0 -0.00348532423955716 -0.00528809706371387 -0.0018027673097634 0.00438671084304061 -0.000841278223700853 -0.00354542860726635 0.00391721715075703 0.000709239635401594 -0.00260533950850668 -0.00420066862730881 -0.00450495337697427 -0.00460922957412225
474.0 -0.00344114045327523 -0.00522119999472237 -0.00178005670260218 0.00433117032253537 -0.000830540295586467 -0.00350062650592704 0.00386330382028636 0.000692209031725708 -0.00257364690098111 -0.00414453724566966 -0.00444355534026069 -0.00454597023910161
475.0 -0.00339818604388273 -0.00515608701607473 -0.00175789951073645 0.00427713415473798 -0.000820143908888504 -0.00345698988878569 0.00381089135396478 0.000675721167395035 -0.00254282405515543 -0.0040899688577871 -0.00438387393631944 -0.00448447183420763
476.0 -0.00335638853466882 -0.00509263969669812 -0.00173625040966263 0.00422451289289433 -0.000810067452396752 -0.00341444331590446 0.00375998903638469 0.000659717460451929 -0.00251278860373923 -0.00403685041658144 -0.00432578464857165 -0.00442462716555666
477.0 -0.00331565724286289 -0.00503074854815831 -0.00171509091797224 0.00417320226601092 -0.000800280877971469 -0.00337291883870451 0.00371059194344168 0.000644331747966732 -0.00248340595674017 -0.00398505579758854 -0.00426918941153367 -0.00436634223356337
478.0 -0.00327595518826632 -0.00497040572446876 -0.001694455188742 0.00412317770632908 -0.000790748823700403 -0.00333242999618274 0.00366255198209505 0.00062952667272118 -0.00245472327283306 -0.00393459285016724 -0.00421408140789103 -0.00430958320244774
479.0 -0.00323720996194016 -0.00491161689033742 -0.0016744093235544 0.00407441201040139 -0.00078140068413596 -0.00329301286991739 0.00361563765114759 0.000615125315060036 -0.00242680364509354 -0.00388549957876975 -0.00416046197998259 -0.00425436176494969
480.0 -0.0031994231027873 -0.00485426851552802 -0.00165484664578294 0.00402684265435898 -0.00077228696079641 -0.00325455503266368 0.00356982681102161 0.000601192342758425 -0.00239955340390452 -0.0038376693979951 -0.00410823478013287 -0.00420058204991045
481.0 -0.0031626633301489 -0.00479842830428459 -0.00163576560891371 0.0039805441931062 -0.000763446752413751 -0.00321709564487666 0.00352523906639304 0.000587680505063105 -0.00237305047788389 -0.00379114447571692 -0.0040574423947261 -0.00414827233322007
482.0 -0.00312687383439742 -0.00474411655537719 -0.00161724304776755 0.0039354919328168 -0.000754815278385307 -0.00318067912628924 0.0034818389517943 0.000574553832337515 -0.00234728161388673 -0.00374591255667437 -0.00400805822814534 -0.00409741320793564
483.0 -0.00309200110989304 -0.00469128064357447 -0.00159927970191388 0.00389163919739898 -0.000746361130016671 -0.0031452798251041 0.0034395936535677 0.000561853485995454 -0.00232216721006916 -0.00370190910854864 -0.00396003462524475 -0.00404797042355874
484.0 -0.00305796424029387 -0.00463967999188627 -0.00158171583819953 0.00384882125155778 -0.000738126361143046 -0.00311069531010756 0.00339831160933604 0.000549449275792746 -0.00229769539850855 -0.00365902813064898 -0.0039132209025141 -0.00399976623382537
485.0 -0.00302468760579729 -0.0045891761939305 -0.00156448863271912 0.00380693388076514 -0.000730099628183064 -0.00307683107228743 0.00335801549996184 0.000537404696037134 -0.00227378729048233 -0.00361716168184534 -0.00386752978324606 -0.00395270913382137
486.0 -0.00299216138846101 -0.00453981444368011 -0.00154764822623621 0.0037659913618192 -0.000722256654031624 -0.00304373064458354 0.00331880918848238 0.000525891684567956 -0.00225032464259514 -0.00357625904528927 -0.00382292604070519 -0.00390680053559143
487.0 -0.00296046301685762 -0.00449163256308961 -0.0015311670602407 0.00372604956386707 -0.000714649956622149 -0.00301139703028787 0.00328069762489384 0.00051486581303861 -0.00222734362111052 -0.00353632807517465 -0.00377941579962268 -0.00386203146219318
488.0 -0.00292953046105566 -0.00444469369056727 -0.00151515709777138 0.00368711298902316 -0.000707187700090683 -0.0029799239622985 0.00324352809553374 0.000504203289183018 -0.00220493562369248 -0.00349744559393085 -0.00373705073240941 -0.00381843125579127
489.0 -0.00289933663958545 -0.00439886536434549 -0.00149952556810093 0.0036491014720927 -0.000699905089658887 -0.00294919472908695 0.00320721713049533 0.000493802538849562 -0.00218309433114726 -0.00345953955570799 -0.00369575554969704 -0.00377593253900774
490.0 -0.00286981909137305 -0.0043541182077467 -0.00148429749130534 0.00361196889158438 -0.000692762025968081 -0.00291920747004356 0.00317163927602438 0.000483594289238957 -0.00216178737869743 -0.00342255831503347 -0.00365546238042091 -0.00373447636585721
491.0 -0.00284098932848193 -0.00431039828198123 -0.00146940811690374 0.00357569150385934 -0.00068579172210148 -0.00288990300408248 0.00313674935546939 0.000473511825880391 -0.00214109514346859 -0.0033865432115916 -0.00361620421122667 -0.00369406150218522
492.0 -0.00281284357352402 -0.00426768267095101 -0.00145483866674223 0.00354026193747636 -0.000679002542882055 -0.00286126056827404 0.00310261629838522 0.000463676550883171 -0.0021209280018472 -0.00335144760021231 -0.00357793009674653 -0.00365465334908911
493.0 -0.00278530710283569 -0.00422593531762205 -0.0014406328450031 0.00350561817433824 -0.000672336204599715 -0.00283328402953717 0.00306947451952407 0.000454365418401553 -0.00210107484919922 -0.00331710676151936 -0.00354053617900301 -0.00361618072353633
494.0 -0.00275835115206871 -0.00418515706734656 -0.00142681315087906 0.00347175254681171 -0.000665768524750735 -0.0028059850824585 0.00303720210030015 0.000445508491409385 -0.00208152404622828 -0.00328348441628384 -0.00350396413930869 -0.00357857786843013
