0.0      0      0      0      0      0      0      0      0      0      0      0      0
1.0 -0.0060946 -0.0111214 -0.00502681 0.00860801 -0.000533897 -0.00807411 0.0159546 0.00177364 -0.00517348 -0.00720174 -0.00708379 -0.00710042
2.0 -0.0164561 -0.0288269 -0.0123707 0.0226415 -0.00204269 -0.0205988 0.0419234 0.00359989 -0.0139844 -0.0188824 -0.0184662 -0.0184362
3.0 -0.0296627 -0.0446107 -0.014948 0.0371367 -0.00735731 -0.0297794 0.0753301 0.00647003 -0.0208639 -0.0280837 -0.0276669 -0.0276154
4.0 -0.0326926 -0.0441511 -0.0114585 0.0384219 -0.010617 -0.0278048 0.0850576 0.00836234 -0.0194235 -0.0265818 -0.0264512 -0.0264556
5.0 -0.0426588 -0.0728342 -0.0301755 0.0577465 -0.00624166 -0.0515049 0.0421317 -0.0352307 -0.0542547 -0.0554431 -0.0493224 -0.0467761
6.0 -0.0222096 -0.0346481 -0.0124385 0.0284289 -0.00488558 -0.0235433 0.0266603 -0.0178151 -0.0269466 -0.0270832 -0.023783 -0.0224206
7.0 0.00151945 0.0189283 0.0174089 -0.0102239 -0.00794471 0.0181686 0.019193 0.0132045 0.0153583 0.015706 0.0140116 0.0133844
8.0 0.00884129 0.0236798 0.0148385 -0.0162605 -0.0029986 0.0192591 0.00777558 0.016689 0.0190017 0.0184415 0.0164499 0.0155672
9.0 0.00393165 0.0168957 0.0129641 -0.0104137 -0.0045162 0.0149299 0.0107203 0.00893966 0.0110646 0.0120106 0.0113064 0.0111119
10.0 0.00233107 0.0113998 0.00906878 -0.00686546 -0.00336885 0.0102343 0.00916125 0.00498749 0.00611936 0.00741887 0.00755835 0.00773407
11.0 -0.000417469 0.00643357 0.00685104 -0.00300805 -0.00363425 0.00664231 0.00655461 -0.000751102 0.000411492 0.0027301 0.00395246 0.00464922
12.0 -0.00534753 0.000149328 0.00549685 0.0025991 -0.00542219 0.00282309 0.00556187 -0.00881328 -0.00637265 -0.00245595 1.91987e-05 0.00134625
13.0 -0.00861719 -0.00445265 0.00416454 0.00653492 -0.00639086 -0.000144054 0.0149449 -0.00901975 -0.00946297 -0.00566302 -0.00270983 -0.00112822
14.0 -0.0121691 -0.00861861 0.00355045 0.0103938 -0.00785975 -0.00253408 0.0271191 -0.00932364 -0.0122351 -0.00830666 -0.00489293 -0.00304084
15.0 -0.0146019 -0.00634594 0.00825596 0.0104739 -0.0114289 0.000955011 0.0407717 -0.00749047 -0.0108025 -0.00603018 -0.00253347 -0.000493714
16.0 -0.0166153 -0.000487609 0.0161277 0.00855145 -0.0163715 0.00782004 0.0553145 -0.00510133 -0.0069589 -0.00077959 0.00254345 0.0047052
17.0 -0.0174178 0.00198974 0.0194076 0.00771405 -0.0184127 0.0106987 0.0644584 -0.00676892 -0.00698581 0.000658283 0.00439198 0.00686567
18.0 -0.0201463 0.00388683 0.0240332 0.00812976 -0.0220898 0.01396 0.0723932 -0.0122255 -0.00928556 0.00114014 0.0059342 0.00909414
19.0 -0.0235134 -0.000693144 0.0228203 0.0121033 -0.0231669 0.0110636 0.0784082 -0.0222241 -0.0171322 -0.00401131 0.00266884 0.00676504
20.0 -0.0261389 -0.00569121 0.0204476 0.015915 -0.0232933 0.00737822 0.0910007 -0.0289341 -0.0237677 -0.00909237 -0.000938037 0.00385089
21.0 -0.0293928 -0.011477 0.0179158 0.0204349 -0.0236543 0.00321938 0.106783 -0.0304469 -0.02897 -0.0141049 -0.00489515 0.000357511
22.0 -0.0313547 -0.0112289 0.0201258 0.0212918 -0.0257402 0.00444849 0.127868 -0.0304522 -0.0316303 -0.0159152 -0.00577181 -3.08029e-05
23.0 -0.0288139 -0.00302075 0.0257931 0.0159173 -0.0273035 0.0113862 0.147379 -0.0245646 -0.0275928 -0.0116115 -0.00160872 0.00414231
24.0 -0.0260676 0.00612424 0.0321918 0.00997166 -0.0291297 0.019158 0.151415 -0.0279178 -0.0274726 -0.0086559 0.00229248 0.00861951
25.0 -0.0160806 0.01984 0.0359206 -0.00187968 -0.0260006 0.0278803 0.135279 -0.0319874 -0.0261352 -0.00452437 0.00737316 0.0141696
26.0 -0.00489667 0.0397837 0.0446803 -0.0174435 -0.0247885 0.042232 0.107595 -0.025883 -0.0168581 0.00588358 0.0172271 0.0238215
27.0 0.0122906 0.0583288 0.0460381 -0.0353097 -0.0168738 0.0521834 0.0917777 -0.00438406 -0.00138983 0.0175445 0.0264766 0.031846
28.0 0.0266556 0.0800611 0.0534054 -0.0533584 -0.0133749 0.0667333 0.105247 0.0267393 0.0201714 0.0340386 0.0393119 0.0429972
29.0 0.0411169 0.098878 0.0577612 -0.0699975 -0.00832215 0.0783196 0.0829972 0.0359953 0.0326098 0.0461314 0.0500024 0.0530093
30.0 0.0525732 0.118181 0.0656078 -0.0853771 -0.00651729 0.0918944 0.0499417 0.0429554 0.0465407 0.0603806 0.0625027 0.0647155
31.0 0.0594665 0.137457 0.0779907 -0.0984618 -0.0092621 0.107724 0.0324574 0.053028 0.059925 0.0741291 0.0744856 0.0760835
32.0 0.0621936 0.149118 0.0869241 -0.105656 -0.0123652 0.118021 0.0338506 0.0637094 0.0683635 0.0815759 0.0804916 0.0816024
33.0 0.0664062 0.160139 0.093733 -0.113273 -0.0136634 0.126936 0.00434438 0.0620244 0.0721685 0.087339 0.0863416 0.0876021
34.0 0.0690028 0.170449 0.101446 -0.119726 -0.0162218 0.135948 -0.0266211 0.0559857 0.0737496 0.0917696 0.0913443 0.0930141
35.0 0.0724937 0.181835 0.109341 -0.127164 -0.0184238 0.145588 -0.0565445 0.0535272 0.0785811 0.0985531 0.0980929 0.0998431
36.0 0.076845 0.187945 0.1111 -0.132395 -0.0171274 0.149522 -0.107667 0.04034 0.0753988 0.0987154 0.0995808 0.101943
37.0 0.0773423 0.197096 0.119753 -0.137219 -0.0212056 0.158425 -0.14106 0.0279383 0.0739644 0.10214 0.10437 0.10757
38.0 0.0818188 0.20414 0.122321 -0.142979 -0.0202513 0.163231 -0.148651 0.0380099 0.0818153 0.107893 0.10901 0.111735
39.0 0.0897784 0.19763 0.107852 -0.143704 -0.00903683 0.152741 -0.17967 0.033272 0.0766885 0.101242 0.103503 0.106363
40.0 0.0963537 0.195306 0.0989527 -0.14583 -0.00129946 0.14713 -0.226444 0.0166012 0.069099 0.095735 0.0998144 0.10322
41.0 0.0997646 0.199278 0.099513 -0.149521 0.000125796 0.149395 -0.237021 0.0180073 0.0726381 0.0997684 0.103761 0.107236
42.0 0.102298 0.214091 0.111792 -0.158195 -0.00474695 0.162941 -0.236463 0.0289098 0.086204 0.114498 0.116981 0.12006
43.0 0.103146 0.226334 0.123188 -0.16474 -0.0100212 0.174761 -0.243108 0.0371501 0.0978801 0.127648 0.128702 0.131411
44.0 0.105426 0.238544 0.133118 -0.171985 -0.0138464 0.185831 -0.247485 0.045559 0.108442 0.13922 0.139147 0.141489
45.0 0.112187 0.253346 0.14116 -0.182767 -0.0144863 0.197253 -0.273041 0.0399523 0.112685 0.147233 0.147591 0.150198
46.0 0.116111 0.260995 0.144885 -0.188553 -0.014387 0.20294 -0.288941 0.0366212 0.1126 0.149731 0.151119 0.154244
47.0 0.117343 0.2639 0.146557 -0.190621 -0.0146068 0.205228 -0.288414 0.0386387 0.11211 0.150306 0.152513 0.156091
48.0 0.11762 0.267001 0.149381 -0.192311 -0.0158803 0.208191 -0.280962 0.0429325 0.111623 0.150492 0.153459 0.15752
49.0 0.117642 0.266061 0.148419 -0.191852 -0.0153881 0.20724 -0.279241 0.0431427 0.106889 0.146739 0.151107 0.155855
50.0 0.118881 0.263499 0.144618 -0.19119 -0.0128688 0.204059 -0.277399 0.0493268 0.107228 0.14487 0.148948 0.153385
51.0 0.116711 0.265657 0.148946 -0.191184 -0.0161173 0.207301 -0.26317 0.0467962 0.10311 0.142322 0.14723 0.152234
52.0 0.114343 0.26926 0.154917 -0.191802 -0.0202871 0.212089 -0.267932 0.0330964 0.0970157 0.141654 0.148598 0.154888
53.0 0.109181 0.274114 0.164933 -0.191648 -0.0278757 0.219524 -0.30369 0.00297825 0.0845406 0.139428 0.150568 0.159127
54.0 0.0988231 0.277418 0.178595 -0.188121 -0.039886 0.228007 -0.334149 -0.0425552 0.0644918 0.132558 0.14918 0.160703
55.0 0.0936567 0.273483 0.179827 -0.18357 -0.043085 0.226655 -0.393217 -0.10833 0.0330949 0.117862 0.142655 0.15808
56.0 0.097338 0.264848 0.16751 -0.181093 -0.035086 0.216179 -0.462363 -0.148616 0.0138132 0.108136 0.138794 0.156654
57.0 0.102612 0.277493 0.174881 -0.190052 -0.0361342 0.226187 -0.485765 -0.17008 0.0116658 0.114584 0.147845 0.166841
58.0 0.110127 0.301113 0.190986 -0.20562 -0.0404291 0.246049 -0.489897 -0.18402 0.0186807 0.129299 0.163231 0.182521
59.0 0.115498 0.316074 0.200576 -0.215786 -0.0425388 0.258325 -0.49043 -0.191653 0.0269888 0.141423 0.174752 0.193749
60.0 0.119612 0.325125 0.205512 -0.222369 -0.0429501 0.265319 -0.493447 -0.197455 0.0306422 0.148663 0.182291 0.201387
61.0 0.12461 0.324789 0.200179 -0.2247 -0.0377843 0.262484 -0.488354 -0.197614 0.0346062 0.153176 0.186454 0.205137
62.0 0.12321 0.304462 0.181253 -0.213836 -0.0290216 0.242857 -0.477102 -0.201799 0.0224001 0.138427 0.173494 0.192867
63.0 0.125435 0.279906 0.154471 -0.20267 -0.014518 0.217188 -0.451234 -0.194142 0.0179338 0.126596 0.160707 0.179036
64.0 0.131763 0.260681 0.128918 -0.196222 0.00142278 0.194799 -0.431804 -0.187707 0.0197837 0.122088 0.153925 0.170425
65.0 0.137091 0.240441 0.10335 -0.188766 0.0168704 0.171895 -0.408013 -0.168675 0.0279059 0.120802 0.148882 0.162867
66.0 0.138366 0.207124 0.0687578 -0.172745 0.0348042 0.137941 -0.382258 -0.150093 0.0333106 0.115278 0.139427 0.150894
67.0 0.137972 0.178114 0.0401417 -0.158043 0.0489151 0.109128 -0.355898 -0.138602 0.0370091 0.111201 0.132515 0.142068
68.0 0.133921 0.154758 0.0208379 -0.14434 0.0565413 0.0877982 -0.328697 -0.132801 0.0414008 0.109398 0.128082 0.135698
69.0 0.129771 0.133486 0.00371531 -0.131628 0.0630276 0.0686006 -0.323365 -0.157637 0.0271314 0.0969295 0.118532 0.126998
70.0 0.127562 0.137209 0.00964729 -0.132385 0.0589572 0.0734282 -0.304062 -0.155 0.0403296 0.108857 0.128293 0.135455
71.0 0.129362 0.138256 0.00889391 -0.133809 0.060234 0.0735748 -0.295213 -0.155679 0.0486885 0.117364 0.135988 0.142458
72.0 0.131227 0.142814 0.011587 -0.13702 0.0598198 0.0772003 -0.285672 -0.150009 0.0591862 0.128836 0.146725 0.152739
73.0 0.129383 0.147688 0.0183045 -0.138536 0.0555394 0.0829962 -0.271703 -0.146166 0.067091 0.140717 0.159205 0.165401
74.0 0.127872 0.142733 0.014861 -0.135302 0.0565053 0.0787967 -0.262862 -0.149876 0.06623 0.143769 0.16438 0.171184
75.0 0.124992 0.144263 0.0192709 -0.134627 0.0528604 0.0817668 -0.256534 -0.15493 0.0621595 0.144187 0.167275 0.175185
76.0 0.123729 0.152865 0.0291359 -0.138297 0.0472967 0.0910006 -0.244777 -0.147371 0.0689032 0.152573 0.17566 0.18361
77.0 0.123142 0.156325 0.0331828 -0.139734 0.0449797 0.0947539 -0.234575 -0.136592 0.0748427 0.156404 0.178452 0.185801
78.0 0.124209 0.163435 0.0392257 -0.143822 0.0424916 0.10133 -0.221834 -0.126154 0.081563 0.162472 0.18419 0.191267
79.0 0.126035 0.170396 0.044361 -0.148216 0.0408372 0.107379 -0.214986 -0.124405 0.0862596 0.170643 0.19311 0.200227
80.0 0.124969 0.176885 0.0519155 -0.150927 0.0365268 0.1144 -0.207496 -0.122651 0.0916523 0.179432 0.202223 0.209294
81.0 0.123155 0.184553 0.0613978 -0.153854 0.0308786 0.122975 -0.203601 -0.125727 0.0911132 0.183793 0.208281 0.216012
82.0 0.121382 0.191916 0.0705338 -0.156649 0.025424 0.131225 -0.199409 -0.123985 0.0930968 0.188558 0.214069 0.222186
83.0 0.122458 0.192729 0.0702707 -0.157594 0.0260938 0.1315 -0.196965 -0.122265 0.094505 0.190817 0.216968 0.225101
84.0 0.124288 0.188799 0.0645103 -0.156544 0.0298891 0.126655 -0.201176 -0.130709 0.0850409 0.185032 0.214298 0.223533
85.0 0.12279 0.187688 0.0648984 -0.155239 0.0289456 0.126293 -0.203797 -0.138014 0.0794886 0.183688 0.215119 0.225104
86.0 0.114804 0.18818 0.0733768 -0.151492 0.0207134 0.130779 -0.201079 -0.146085 0.0709306 0.180741 0.214519 0.225702
87.0 0.100968 0.184047 0.0830788 -0.142507 0.00894459 0.133563 -0.191334 -0.153146 0.0496016 0.163842 0.201271 0.215349
88.0 0.0943993 0.187502 0.0931025 -0.140951 0.000648367 0.140302 -0.184541 -0.150035 0.04469 0.160415 0.198541 0.213741
89.0 0.0920716 0.18642 0.0943481 -0.139246 -0.00113825 0.140384 -0.182082 -0.14604 0.0435728 0.157678 0.195584 0.210887
90.0 0.0906301 0.187481 0.0968507 -0.139055 -0.00311029 0.142166 -0.177253 -0.13908 0.047872 0.160109 0.196839 0.211437
91.0 0.0906103 0.186227 0.0956166 -0.138419 -0.00250315 0.140922 -0.172426 -0.129936 0.0545209 0.163095 0.196996 0.209807
92.0 0.0940715 0.182511 0.0884391 -0.138291 0.0028162 0.135475 -0.165038 -0.112326 0.0692274 0.170666 0.198836 0.20841
93.0 0.0963792 0.173777 0.0773978 -0.135078 0.00949069 0.125587 -0.157825 -0.0975489 0.0776196 0.1713 0.195332 0.202553
94.0 0.0996891 0.155162 0.0554733 -0.127426 0.0221079 0.105318 -0.164247 -0.103945 0.0665895 0.158113 0.183849 0.191056
95.0 0.0952212 0.146508 0.0512873 -0.120865 0.021967 0.0988979 -0.156485 -0.0972605 0.0660309 0.153262 0.177684 0.184044
96.0 0.0917153 0.134178 0.042463 -0.112947 0.0246261 0.0883207 -0.151593 -0.0993038 0.0523692 0.136917 0.162763 0.169631
97.0 0.0881376 0.112231 0.0240937 -0.100184 0.0320219 0.0681625 -0.153336 -0.10639 0.0319944 0.112718 0.140458 0.148202
98.0 0.0822803 0.100373 0.018093 -0.0913268 0.0320936 0.0592332 -0.141602 -0.100245 0.0266127 0.102009 0.127939 0.134722
99.0 0.0705118 0.0920999 0.0215881 -0.0813059 0.0244619 0.056844 -0.124848 -0.0913576 0.0214431 0.091756 0.115316 0.121886
100.0 0.056389 0.0878676 0.0314786 -0.0721283 0.0124552 0.0596731 -0.102551 -0.0736816 0.0240885 0.0857024 0.104408 0.109975
101.0 0.0425863 0.0831823 0.040596 -0.0628843 0.000995166 0.0618891 -0.0779204 -0.0491271 0.0324473 0.0821176 0.0940691 0.0976923
102.0 0.028095 0.0811648 0.0530698 -0.0546299 -0.0124874 0.0671173 -0.0506809 -0.0229895 0.0422767 0.0806425 0.0861336 0.0882408
103.0 0.0128363 0.0719467 0.0591103 -0.0423915 -0.023137 0.0655285 -0.0332819 -0.0108991 0.0330381 0.0625144 0.0665939 0.0699033
104.0 0.00205602 0.0582727 0.0562167 -0.0301644 -0.0270803 0.0572447 -0.0244315 -0.00814959 0.0163433 0.0400547 0.0453625 0.0507607
105.0 -0.000661417 0.053779 0.0544404 -0.0265588 -0.0275509 0.0541097 -0.0247436 -0.0121387 0.0122088 0.0356661 0.0413071 0.046623
106.0 -0.00293936 0.0532881 0.0562275 -0.0251744 -0.0295834 0.0547578 -0.0244258 -0.0145722 0.0111922 0.0348344 0.0401543 0.0453424
107.0 -0.00353017 0.0499571 0.0534872 -0.0232134 -0.0285087 0.0517221 -0.0275973 -0.0191155 0.00718166 0.0309121 0.0368336 0.0422247
108.0 -0.00261556 0.0426207 0.0452362 -0.0200026 -0.0239259 0.0439284 -0.0331442 -0.0246512 0.00077494 0.0234718 0.0301802 0.0356838
109.0 -0.00260783 0.0361175 0.0387254 -0.0167548 -0.0206666 0.0374214 -0.0356344 -0.0277993 -0.00367305 0.0175799 0.0244021 0.0297338
110.0 -0.00239289 0.0210917 0.0234846 -0.00934939 -0.0129387 0.0222881 -0.030999 -0.0202192 -0.00340576 0.00975934 0.0135938 0.0166797
111.0 -0.00165224 0.0173341 0.0189864 -0.00784095 -0.0103193 0.0181603 -0.0195384 -0.00356792 0.00872856 0.0145721 0.0136093 0.0134687
112.0 -0.00150112 0.0188203 0.0203214 -0.00865958 -0.0109113 0.0195708 -0.0187152 -0.00129832 0.0118568 0.0171183 0.0153411 0.0146058
113.0 -0.00152975 0.0189595 0.0204892 -0.00871485 -0.0110095 0.0197243 -0.0240438 -0.00792573 0.00704022 0.0144292 0.0143273 0.0144631
114.0 -0.0009547 0.0180285 0.0189832 -0.00853691 -0.00996896 0.0185059 -0.0312654 -0.0168145 0.000228782 0.0103683 0.0126581 0.014027
115.0 -0.000987411 0.0174237 0.0184112 -0.00821817 -0.00969928 0.0179174 -0.0354413 -0.0223013 -0.00380939 0.00797524 0.0116465 0.0137375
116.0 -0.0012386 0.0165638 0.0178024 -0.00766261 -0.00952051 0.0171831 -0.0392128 -0.0279038 -0.00834512 0.00511396 0.0103008 0.0131777
117.0 -0.00122282 0.0137211 0.014944 -0.00624916 -0.00808339 0.0143325 -0.0404036 -0.0298105 -0.0106263 0.00260959 0.00823374 0.0112562
118.0 -0.000968735 0.0100241 0.0109929 -0.0045277 -0.0059808 0.0105085 -0.0418503 -0.0319088 -0.0134585 -0.000605549 0.00558595 0.00875936
119.0 -0.000184285 0.0063703 0.00655458 -0.00309301 -0.00336943 0.00646244 -0.0429075 -0.0328643 -0.0152296 -0.00320468 0.00326418 0.00637376
120.0 -0.000520121 0.00379201 0.00431213 -0.00163594 -0.00241612 0.00405207 -0.0433668 -0.0344745 -0.0177085 -0.00595533 0.000989232 0.00427665
121.0 -0.000465202 -0.000514956 -4.97543e-05 0.000490079 -0.000207724 -0.000282355 -0.0431659 -0.0345647 -0.0192273 -0.00877676 -0.00184445 0.00130925
122.0 -0.00121725 -0.00317278 -0.00195552 0.00219502 0.000369135 -0.00256415 -0.0409734 -0.0329524 -0.0189321 -0.00987785 -0.00352236 -0.000672936
123.0 -0.00159986 -0.00304958 -0.00144972 0.00232472 -7.50702e-05 -0.00224965 -0.0391645 -0.0317284 -0.0177412 -0.00897667 -0.00301271 -0.000345716
124.0 -0.0015337 -0.00281876 -0.00128507 0.00217623 -0.000124314 -0.00205192 -0.0388068 -0.0319888 -0.0175157 -0.0084004 -0.00235495 0.000338085
125.0 -0.0014704 -0.0025369 -0.0010665 0.00200365 -0.000201953 -0.0018017 -0.0383101 -0.0320114 -0.0171146 -0.00773825 -0.00168674 0.000998894
126.0 -0.00155796 -0.00242921 -0.000871254 0.00199358 -0.000343351 -0.00165023 -0.0377786 -0.0321336 -0.0169335 -0.00732772 -0.00125045 0.0014401
127.0 -0.00168792 -0.00267253 -0.000984615 0.00218023 -0.000351653 -0.00182857 -0.0372026 -0.0322151 -0.0168752 -0.00714982 -0.00105449 0.00163256
128.0 -0.00189571 -0.00306521 -0.0011695 0.00248046 -0.000363103 -0.00211735 -0.036457 -0.0322075 -0.0168703 -0.00710215 -0.00100508 0.00167212
129.0 -0.00210928 -0.00336019 -0.00125092 0.00273474 -0.000429181 -0.00230556 -0.0356169 -0.0320695 -0.0167618 -0.00698448 -0.000924307 0.00172767
130.0 -0.00236075 -0.00373657 -0.00137582 0.00304866 -0.000492462 -0.0025562 -0.0347386 -0.0319147 -0.0167044 -0.00695199 -0.000932322 0.00169332
131.0 -0.00264406 -0.00418271 -0.00153864 0.00341339 -0.000552711 -0.00286068 -0.0338291 -0.0317422 -0.0166904 -0.00699367 -0.00101822 0.00157993
132.0 -0.00295605 -0.00468863 -0.00173258 0.00382234 -0.00061174 -0.0032106 -0.0328939 -0.0315552 -0.0167157 -0.00710157 -0.00117354 0.00139616
133.0 -0.00329379 -0.00524711 -0.00195332 0.00427045 -0.000670236 -0.00360022 -0.0319343 -0.031354 -0.0167759 -0.00726903 -0.00139166 0.00114875
134.0 -0.003655 -0.00585138 -0.00219638 0.00475319 -0.000729308 -0.00402388 -0.0309527 -0.0311388 -0.0168676 -0.00749018 -0.00166644 0.000843907
135.0 -0.00403718 -0.00649751 -0.00246034 0.00526735 -0.000788422 -0.00447893 -0.0299522 -0.0309103 -0.0169876 -0.00776063 -0.0019933 0.000486293
136.0 -0.00443836 -0.00718047 -0.00274211 0.00580942 -0.000848123 -0.00496129 -0.0289377 -0.0306698 -0.0171335 -0.00807561 -0.00236716 8.10977e-05
137.0 -0.00485662 -0.00789655 -0.00303993 0.00637658 -0.000908347 -0.00546824 -0.0279106 -0.0304194 -0.0173039 -0.00843193 -0.00278439 -0.000367844
138.0 -0.00528972 -0.00864201 -0.00335229 0.00696587 -0.000968715 -0.00599715 -0.0268742 -0.0301601 -0.0174967 -0.00882603 -0.00324122 -0.00085663
139.0 -0.00573649 -0.00941416 -0.00367768 0.00757532 -0.0010294 -0.00654592 -0.0258293 -0.0298925 -0.0177105 -0.00925504 -0.00373442 -0.00138201
140.0 -0.00619493 -0.0102091 -0.00401414 0.008202 -0.0010904 -0.00711161 -0.0247792 -0.029617 -0.0179426 -0.00971523 -0.00426027 -0.00194017
141.0 -0.00666372 -0.0110246 -0.00436087 0.00884416 -0.00115143 -0.00769273 -0.0237264 -0.0293363 -0.0181924 -0.0102043 -0.00481608 -0.0025283
142.0 -0.00714191 -0.0118582 -0.00471627 0.00950005 -0.00121282 -0.00828723 -0.0226718 -0.0290513 -0.0184587 -0.0107199 -0.00539927 -0.00314375
143.0 -0.00762808 -0.0127085 -0.00508042 0.0101683 -0.00127383 -0.00889446 -0.0216174 -0.0287615 -0.0187402 -0.0112602 -0.00600779 -0.00378443
144.0 -0.00812133 -0.0135718 -0.0054505 0.0108466 -0.00133541 -0.00951117 -0.0205635 -0.0284678 -0.0190345 -0.0118214 -0.00663804 -0.00444672
145.0 -0.00862042 -0.0144471 -0.00582666 0.0115338 -0.00139688 -0.0101369 -0.0195122 -0.0281702 -0.0193409 -0.0124023 -0.00728843 -0.00512897
146.0 -0.00912391 -0.0153329 -0.00620896 0.0122284 -0.00145747 -0.0107709 -0.0184659 -0.0278705 -0.0196589 -0.0130016 -0.00795754 -0.00582976
147.0 -0.00963086 -0.0162279 -0.00659699 0.0129294 -0.00151694 -0.0114124 -0.0174258 -0.0275705 -0.0199878 -0.0136176 -0.00864339 -0.00654699
148.0 -0.0101409 -0.0171297 -0.0069888 0.0136353 -0.00157604 -0.0120592 -0.0163911 -0.0272675 -0.0203254 -0.0142476 -0.00934337 -0.0072781
149.0 -0.0106524 -0.0180375 -0.0073851 0.014345 -0.00163367 -0.0127113 -0.0153638 -0.0269646 -0.0206713 -0.0148903 -0.0100561 -0.00802172
150.0 -0.0111655 -0.0189507 -0.00778522 0.0150581 -0.00169012 -0.0133679 -0.0143433 -0.0266613 -0.0210248 -0.0155448 -0.0107807 -0.00877694
151.0 -0.0116788 -0.0198673 -0.00818856 0.015773 -0.0017451 -0.0140279 -0.0133323 -0.026359 -0.0213854 -0.0162096 -0.0115153 -0.0095418
152.0 -0.0121919 -0.0207865 -0.00859461 0.0164892 -0.00179866 -0.0146906 -0.0123309 -0.026058 -0.0217522 -0.0168833 -0.0122583 -0.0103148
153.0 -0.0127041 -0.0217068 -0.00900277 0.0172054 -0.00185064 -0.0153548 -0.0113391 -0.0257575 -0.0221234 -0.0175637 -0.0130079 -0.011094
154.0 -0.0132148 -0.0226276 -0.00941278 0.0179212 -0.00190103 -0.0160202 -0.0103573 -0.0254582 -0.0224989 -0.0182504 -0.0137633 -0.0118787
155.0 -0.0137235 -0.0235485 -0.00982499 0.018636 -0.00194925 -0.0166867 -0.00938625 -0.0251608 -0.0228785 -0.0189425 -0.0145237 -0.0126681
156.0 -0.0142292 -0.0244701 -0.0102408 0.0193496 -0.00199418 -0.0173554 -0.00842739 -0.0248668 -0.0232629 -0.0196406 -0.0152891 -0.013462
157.0 -0.0147319 -0.0253887 -0.0106568 0.0200603 -0.00203752 -0.0180228 -0.00747899 -0.024575 -0.0236491 -0.0203407 -0.0160562 -0.0142572
158.0 -0.0152307 -0.0263044 -0.0110737 0.0207675 -0.00207849 -0.018689 -0.00654149 -0.0242851 -0.0240365 -0.0210424 -0.0168242 -0.0150531
159.0 -0.0157255 -0.0272163 -0.0114908 0.0214709 -0.00211735 -0.0193536 -0.00561487 -0.0239967 -0.0244243 -0.0217445 -0.0175922 -0.0158487
160.0 -0.0162159 -0.0281243 -0.0119084 0.0221701 -0.00215376 -0.0200164 -0.00469906 -0.0237112 -0.0248123 -0.0224464 -0.0183593 -0.0166431
161.0 -0.0167015 -0.0290284 -0.0123269 0.022865 -0.00218732 -0.0206777 -0.00379442 -0.0234284 -0.0252006 -0.023148 -0.0191253 -0.0174362
162.0 -0.0171821 -0.0299278 -0.0127457 0.023555 -0.00221824 -0.0213367 -0.00290171 -0.0231496 -0.0255893 -0.0238486 -0.0198896 -0.0182271
163.0 -0.0176571 -0.0308214 -0.0131644 0.0242392 -0.00224635 -0.0219929 -0.00201929 -0.0228734 -0.0259767 -0.0245468 -0.0206508 -0.0190147
164.0 -0.018126 -0.0317101 -0.0135841 0.024918 -0.00227091 -0.0226471 -0.00114776 -0.0226001 -0.0263627 -0.0252425 -0.0214087 -0.0197988
165.0 -0.0185895 -0.0325927 -0.0140032 0.0255911 -0.00229317 -0.0232979 -0.000285772 -0.0223298 -0.026747 -0.0259348 -0.0221625 -0.0205783
166.0 -0.0190468 -0.0334672 -0.0144204 0.026257 -0.00231318 -0.0239438 0.000566658 -0.0220614 -0.027128 -0.0266219 -0.0229106 -0.0213522
167.0 -0.0194979 -0.0343343 -0.0148364 0.0269161 -0.00233075 -0.0245854 0.0014111 -0.0217946 -0.0275053 -0.0273037 -0.0236528 -0.0221199
168.0 -0.0199425 -0.035194 -0.0152515 0.0275682 -0.0023455 -0.0252227 0.00224655 -0.0215302 -0.0278791 -0.0279798 -0.0243888 -0.0228813
169.0 -0.0203805 -0.0360453 -0.0156647 0.0282129 -0.00235789 -0.025855 0.00307433 -0.0212673 -0.0282484 -0.0286495 -0.0251179 -0.0236357
170.0 -0.0208122 -0.0368886 -0.0160764 0.0288504 -0.00236794 -0.0264825 0.00389546 -0.0210053 -0.0286131 -0.0293125 -0.02584 -0.0243829
171.0 -0.021237 -0.0377233 -0.0164863 0.0294802 -0.00237533 -0.0271048 0.00470948 -0.0207445 -0.0289726 -0.029968 -0.0265542 -0.0251222
172.0 -0.0216551 -0.0385503 -0.0168952 0.0301027 -0.00237994 -0.0277228 0.00551694 -0.0204854 -0.0293278 -0.0306172 -0.0272613 -0.0258544
173.0 -0.0220661 -0.0393671 -0.0173009 0.0307166 -0.0023826 -0.028334 0.00631917 -0.0202268 -0.0296769 -0.0312577 -0.0279596 -0.0265777
174.0 -0.0224704 -0.0401743 -0.017704 0.0313224 -0.0023832 -0.0289392 0.00711673 -0.0199682 -0.0300195 -0.0318895 -0.028649 -0.0272921
175.0 -0.0228674 -0.0409721 -0.0181047 0.0319197 -0.00238135 -0.0295384 0.00791112 -0.0197082 -0.0303549 -0.0325121 -0.0293292 -0.0279974
176.0 -0.0232573 -0.0417592 -0.0185019 0.0325083 -0.00237767 -0.0301306 0.00870193 -0.0194478 -0.030683 -0.033125 -0.0299996 -0.0286931
177.0 -0.0236404 -0.0425368 -0.0188964 0.0330886 -0.00237199 -0.0307166 0.00949087 -0.0191855 -0.0310036 -0.0337286 -0.0306608 -0.0293797
178.0 -0.0240173 -0.0433042 -0.0192869 0.0336607 -0.00236521 -0.0312955 0.0102796 -0.0189205 -0.0313158 -0.0343221 -0.0313122 -0.0300569
179.0 -0.024387 -0.0440619 -0.019675 0.0342245 -0.00235599 -0.0318685 0.0110672 -0.0186533 -0.0316199 -0.0349055 -0.031954 -0.0307247
180.0 -0.02475 -0.0448094 -0.0200594 0.0347797 -0.00234533 -0.0324344 0.0118543 -0.0183848 -0.0319171 -0.0354798 -0.0325864 -0.0313831
181.0 -0.0251063 -0.0455464 -0.02044 0.0353263 -0.00233316 -0.0329932 0.0126424 -0.0181132 -0.0322055 -0.0360435 -0.0332086 -0.0320317
182.0 -0.0254561 -0.0462726 -0.0208165 0.0358644 -0.00231981 -0.0335445 0.0134325 -0.0178372 -0.0324843 -0.0365963 -0.0338205 -0.0326704
183.0 -0.0257991 -0.0469882 -0.0211891 0.0363937 -0.00230503 -0.0340887 0.014225 -0.0175572 -0.0327538 -0.0371382 -0.0344221 -0.0332992
184.0 -0.0261359 -0.0476935 -0.0215577 0.0369147 -0.00228911 -0.0346256 0.0150203 -0.0172736 -0.033015 -0.0376698 -0.0350141 -0.0339185
185.0 -0.0264659 -0.0483879 -0.021922 0.0374269 -0.00227195 -0.035155 0.0158182 -0.0169859 -0.033267 -0.0381908 -0.0355956 -0.0345278
186.0 -0.0267898 -0.0490722 -0.0222824 0.037931 -0.00225369 -0.0356773 0.0166208 -0.016693 -0.0335096 -0.0387011 -0.0361673 -0.0351277
187.0 -0.0271079 -0.0497462 -0.0226383 0.0384271 -0.00223477 -0.0361923 0.0174288 -0.0163942 -0.0337424 -0.0392006 -0.0367292 -0.0357183
188.0 -0.0274198 -0.0504097 -0.02299 0.0389147 -0.0022149 -0.0366998 0.0182421 -0.0160899 -0.0339654 -0.0396892 -0.0372811 -0.0362994
189.0 -0.0277258 -0.051063 -0.0233372 0.0393944 -0.00219434 -0.0372001 0.0190616 -0.0157794 -0.0341789 -0.0401675 -0.0378234 -0.0368715
190.0 -0.028026 -0.0517061 -0.0236802 0.0398661 -0.00217292 -0.0376931 0.0198876 -0.0154623 -0.0343821 -0.0406348 -0.038356 -0.0374344
191.0 -0.0283205 -0.0523395 -0.024019 0.04033 -0.00215076 -0.0381793 0.0207201 -0.0151394 -0.0345763 -0.0410921 -0.0388793 -0.0379885
192.0 -0.0286098 -0.0529634 -0.0243537 0.0407866 -0.00212806 -0.0386585 0.0215605 -0.0148093 -0.0347608 -0.0415392 -0.0393937 -0.0385342
193.0 -0.028894 -0.0535779 -0.0246839 0.0412359 -0.00210502 -0.0391309 0.0224085 -0.0144722 -0.0349356 -0.0419763 -0.0398992 -0.0390717
194.0 -0.0291728 -0.0541836 -0.0250107 0.0416782 -0.00208106 -0.0395971 0.0232644 -0.0141282 -0.0351012 -0.0424038 -0.0403963 -0.0396013
195.0 -0.0294471 -0.0547807 -0.0253337 0.0421139 -0.00205671 -0.0400572 0.024129 -0.0137762 -0.0352573 -0.0428222 -0.0408855 -0.0401237
196.0 -0.0297165 -0.0553694 -0.0256529 0.0425429 -0.00203183 -0.0405111 0.0250015 -0.0134176 -0.0354047 -0.0432313 -0.0413666 -0.0406387
197.0 -0.0299815 -0.0559499 -0.0259684 0.0429657 -0.00200652 -0.0409592 0.0258831 -0.0130508 -0.0355427 -0.0436314 -0.04184 -0.0411466
198.0 -0.0302422 -0.0565233 -0.026281 0.0433827 -0.00198059 -0.0414021 0.0267725 -0.0126778 -0.0356732 -0.0440238 -0.0423068 -0.0416483
199.0 -0.030499 -0.0570895 -0.0265904 0.0437943 -0.00195429 -0.04184 0.0276702 -0.0122977 -0.0357959 -0.0444086 -0.042767 -0.042144
200.0 -0.030752 -0.0576488 -0.0268968 0.0442004 -0.0019276 -0.0422728 0.0285766 -0.0119102 -0.0359105 -0.0447856 -0.0432206 -0.0426337
201.0 -0.0310014 -0.0582021 -0.0272007 0.0446018 -0.00190036 -0.0427014 0.0294913 -0.0115153 -0.0360173 -0.0451554 -0.0436685 -0.0431184
202.0 -0.0312476 -0.0587498 -0.0275023 0.0449987 -0.00187266 -0.0431261 0.0304143 -0.0111136 -0.0361171 -0.0455188 -0.0441109 -0.0435981
203.0 -0.0314906 -0.0592927 -0.027802 0.0453916 -0.0018443 -0.0435473 0.031345 -0.0107052 -0.0362105 -0.0458764 -0.0445487 -0.0440738
204.0 -0.031731 -0.0598309 -0.0280999 0.045781 -0.00181556 -0.0439654 0.032283 -0.0102903 -0.0362978 -0.0462285 -0.0449821 -0.0445456
205.0 -0.0319688 -0.0603649 -0.0283961 0.0461669 -0.00178637 -0.0443805 0.0332283 -0.00986915 -0.0363791 -0.0465752 -0.0454113 -0.0450136
206.0 -0.0322044 -0.0608953 -0.0286909 0.0465498 -0.00175672 -0.0447931 0.0341805 -0.0094418 -0.0364552 -0.0469175 -0.0458368 -0.0454785
207.0 -0.032438 -0.0614227 -0.0289847 0.0469303 -0.00172664 -0.0452037 0.0351389 -0.00900877 -0.0365264 -0.0472557 -0.0462592 -0.0459408
208.0 -0.0326699 -0.0619473 -0.0292774 0.0473086 -0.00169625 -0.0456124 0.0361034 -0.00857009 -0.0365931 -0.0475901 -0.046679 -0.0464008
209.0 -0.0329004 -0.0624702 -0.0295699 0.0476853 -0.00166525 -0.04602 0.0370728 -0.0081266 -0.0366562 -0.0479219 -0.0470966 -0.046859
210.0 -0.0331297 -0.0629914 -0.0298617 0.0480606 -0.00163403 -0.0464265 0.0380472 -0.00767784 -0.0367155 -0.0482506 -0.0475122 -0.0473158
211.0 -0.0333582 -0.0635112 -0.0301531 0.0484347 -0.00160256 -0.0468322 0.0390257 -0.00722466 -0.0367717 -0.0485772 -0.0479264 -0.0477712
212.0 -0.033586 -0.0640304 -0.0304444 0.0488082 -0.00157077 -0.0472374 0.0400076 -0.00676737 -0.0368255 -0.0489022 -0.0483395 -0.048226
213.0 -0.0338134 -0.0645491 -0.0307357 0.0491813 -0.00153885 -0.0476424 0.0409924 -0.0063063 -0.0368769 -0.0492257 -0.0487518 -0.0486802
214.0 -0.0340407 -0.0650679 -0.0310272 0.0495543 -0.00150672 -0.0480476 0.0419792 -0.00584186 -0.0369268 -0.0495484 -0.0491638 -0.0491343
215.0 -0.034268 -0.0655867 -0.0313187 0.0499274 -0.00147467 -0.0484527 0.0429674 -0.00537437 -0.0369753 -0.0498703 -0.0495756 -0.0495884
216.0 -0.0344957 -0.0661061 -0.0316104 0.0503009 -0.00144262 -0.0488582 0.0439564 -0.00490411 -0.0370226 -0.0501919 -0.0499873 -0.0500427
217.0 -0.0347237 -0.0666262 -0.0319025 0.0506749 -0.00141061 -0.0492643 0.0449447 -0.004432 -0.0370698 -0.050514 -0.0503997 -0.0504976
218.0 -0.0349524 -0.067147 -0.0321946 0.0510497 -0.00137892 -0.0496708 0.0459324 -0.00395769 -0.0371164 -0.050836 -0.0508125 -0.050953
219.0 -0.0351819 -0.0676689 -0.032487 0.0514254 -0.00134741 -0.050078 0.046918 -0.00348227 -0.0371633 -0.0511589 -0.0512259 -0.0514092
220.0 -0.0354121 -0.0681917 -0.0327796 0.0518019 -0.00131628 -0.0504857 0.0479011 -0.00300559 -0.0372104 -0.0514823 -0.0516402 -0.0518661
221.0 -0.0356435 -0.0687153 -0.0330718 0.0521794 -0.00128583 -0.0508936 0.0488808 -0.00252822 -0.0372582 -0.0518066 -0.0520555 -0.0523239
222.0 -0.0358758 -0.0692401 -0.0333643 0.0525579 -0.00125576 -0.0513022 0.049856 -0.00205073 -0.0373069 -0.0521321 -0.0524717 -0.0527826
223.0 -0.0361092 -0.0697655 -0.0336563 0.0529373 -0.00122642 -0.0517109 0.0508259 -0.00157366 -0.037357 -0.0524588 -0.052889 -0.0532422
224.0 -0.0363436 -0.0702915 -0.0339479 0.0533175 -0.00119788 -0.0521197 0.05179 -0.00109654 -0.0374078 -0.0527864 -0.053307 -0.0537023
225.0 -0.0365791 -0.0708178 -0.0342387 0.0536984 -0.00117023 -0.0525282 0.0527469 -0.000620685 -0.0374602 -0.0531153 -0.0537259 -0.0541632
226.0 -0.0368156 -0.0713442 -0.0345286 0.0540799 -0.00114352 -0.0529364 0.0536962 -0.00014584 -0.037514 -0.0534452 -0.0541455 -0.0546246
227.0 -0.037053 -0.0718702 -0.0348172 0.0544616 -0.00111792 -0.0533437 0.0546368 0.000327269 -0.0375696 -0.0537761 -0.0545658 -0.0550862
228.0 -0.0372912 -0.0723956 -0.0351044 0.0548434 -0.00109339 -0.05375 0.0555676 0.000798423 -0.0376266 -0.054108 -0.0549865 -0.055548
229.0 -0.0375301 -0.0729199 -0.0353898 0.055225 -0.00107014 -0.0541548 0.0564883 0.0012672 -0.0376855 -0.0544407 -0.0554074 -0.0560095
230.0 -0.0377694 -0.0734424 -0.035673 0.0556059 -0.00104818 -0.0545577 0.0573977 0.00173346 -0.0377458 -0.054774 -0.0558283 -0.0564707
231.0 -0.0380091 -0.073963 -0.0359539 0.055986 -0.00102757 -0.0549584 0.0582949 0.0021967 -0.0378079 -0.0551076 -0.0562487 -0.056931
232.0 -0.0382488 -0.0744808 -0.036232 0.0563648 -0.00100843 -0.0553564 0.0591791 0.00265624 -0.0378716 -0.0554414 -0.0566687 -0.0573903
233.0 -0.0384884 -0.0749954 -0.036507 0.0567419 -0.000990731 -0.0557512 0.0600496 0.00311237 -0.0379368 -0.0557753 -0.0570877 -0.0578481
234.0 -0.0387277 -0.0755061 -0.0367784 0.0571169 -0.000974613 -0.0561423 0.0609057 0.00356439 -0.0380034 -0.0561084 -0.0575053 -0.058304
235.0 -0.0389663 -0.0760123 -0.037046 0.0574893 -0.000960104 -0.0565292 0.0617462 0.00401196 -0.0380718 -0.0564411 -0.0579214 -0.0587578
236.0 -0.0392039 -0.0765134 -0.0373095 0.0578586 -0.000947181 -0.0569115 0.0625705 0.00445458 -0.0381412 -0.0567727 -0.0583355 -0.059209
237.0 -0.0394403 -0.0770087 -0.0375684 0.0582245 -0.000935969 -0.0572885 0.0633782 0.00489245 -0.0382116 -0.0571028 -0.0587469 -0.0596569
238.0 -0.0396752 -0.0774975 -0.0378224 0.0585864 -0.000926415 -0.05766 0.0641681 0.00532468 -0.0382832 -0.0574313 -0.0591556 -0.0601014
239.0 -0.0399083 -0.0779791 -0.0380709 0.0589437 -0.000918693 -0.058025 0.0649399 0.00575123 -0.0383558 -0.0577578 -0.0595609 -0.0605418
240.0 -0.0401391 -0.078453 -0.0383139 0.059296 -0.000912588 -0.0583834 0.0656925 0.00617167 -0.0384288 -0.0580817 -0.0599624 -0.0609777
241.0 -0.0403675 -0.0789184 -0.0385508 0.0596429 -0.00090833 -0.0587346 0.0664255 0.0065855 -0.0385027 -0.0584029 -0.0603598 -0.0614088
242.0 -0.0405931 -0.0793746 -0.0387815 0.0599838 -0.000905798 -0.059078 0.0671384 0.00699286 -0.0385768 -0.0587206 -0.0607525 -0.0618343
243.0 -0.0408156 -0.079821 -0.0390055 0.0603183 -0.00090505 -0.0594132 0.0678303 0.0073928 -0.0386512 -0.0590348 -0.0611402 -0.062254
244.0 -0.0410346 -0.0802571 -0.0392226 0.0606459 -0.000905993 -0.0597399 0.0685011 0.00778571 -0.0387256 -0.0593449 -0.0615221 -0.0626671
245.0 -0.0412498 -0.0806822 -0.0394324 0.060966 -0.000908706 -0.0600573 0.0691498 0.00817061 -0.0388001 -0.0596506 -0.0618981 -0.0630736
246.0 -0.041461 -0.0810958 -0.0396348 0.0612784 -0.000913082 -0.0603653 0.0697763 0.0085477 -0.0388741 -0.0599516 -0.0622677 -0.0634726
247.0 -0.0416677 -0.0814972 -0.0398295 0.0615824 -0.000919129 -0.0606633 0.07038 0.00891634 -0.0389478 -0.0602472 -0.0626305 -0.0638638
248.0 -0.0418697 -0.0818859 -0.0400162 0.0618778 -0.00092679 -0.060951 0.0709606 0.00927639 -0.039021 -0.0605373 -0.0629857 -0.0642468
249.0 -0.0420667 -0.0822615 -0.0401948 0.0621641 -0.000935977 -0.0612282 0.0715176 0.00962753 -0.0390933 -0.0608213 -0.0633334 -0.0646211
250.0 -0.0422585 -0.0826235 -0.0403651 0.062441 -0.000946721 -0.0614943 0.0720507 0.00996971 -0.0391645 -0.0610992 -0.0636729 -0.0649863
251.0 -0.0424447 -0.0829715 -0.0405268 0.0627081 -0.000958911 -0.0617492 0.0725599 0.0103025 -0.0392346 -0.0613703 -0.0640038 -0.065342
252.0 -0.042625 -0.0833051 -0.0406802 0.0629651 -0.000972403 -0.0619926 0.0730447 0.0106259 -0.0393033 -0.0616342 -0.0643254 -0.0656874
253.0 -0.0427992 -0.0836238 -0.0408246 0.0632115 -0.000987273 -0.0622242 0.0735047 0.0109391 -0.0393708 -0.061891 -0.0646381 -0.0660229
254.0 -0.042967 -0.0839275 -0.0409604 0.0634472 -0.00100329 -0.0624439 0.0739407 0.0112427 -0.0394362 -0.0621397 -0.0649407 -0.0663473
255.0 -0.0431283 -0.0842157 -0.0410874 0.063672 -0.00102047 -0.0626515 0.0743516 0.0115363 -0.0394999 -0.0623806 -0.0652335 -0.0666611
256.0 -0.0432829 -0.0844884 -0.0412055 0.0638856 -0.00103869 -0.0628469 0.0747376 0.0118193 -0.0395616 -0.0626133 -0.0655159 -0.0669632
257.0 -0.0434304 -0.0847452 -0.0413148 0.0640878 -0.00105781 -0.06303 0.0750993 0.0120921 -0.0396211 -0.0628369 -0.0657875 -0.0672536
258.0 -0.0435708 -0.0849859 -0.0414151 0.0642784 -0.00107786 -0.0632005 0.0754363 0.0123546 -0.039678 -0.0630518 -0.066048 -0.0675319
259.0 -0.0437038 -0.0852104 -0.0415066 0.0644571 -0.00109864 -0.0633585 0.0757487 0.0126063 -0.0397323 -0.0632575 -0.0662972 -0.067798
260.0 -0.0438295 -0.0854187 -0.0415893 0.0646241 -0.0011201 -0.063504 0.0760366 0.0128474 -0.0397845 -0.0634539 -0.0665351 -0.0680517
261.0 -0.0439474 -0.0856106 -0.0416632 0.064779 -0.0011421 -0.0636369 0.0763001 0.0130779 -0.0398334 -0.0636404 -0.0667612 -0.0682927
262.0 -0.0440576 -0.0857861 -0.0417284 0.0649219 -0.00116462 -0.0637572 0.0765397 0.0132976 -0.0398795 -0.0638175 -0.0669755 -0.0685207
263.0 -0.04416 -0.0859451 -0.041785 0.0650525 -0.00118749 -0.0638651 0.0767556 0.013507 -0.0399222 -0.0639841 -0.0671773 -0.0687355
264.0 -0.0442545 -0.0860876 -0.0418331 0.065171 -0.00121068 -0.0639604 0.0769481 0.0137056 -0.0399618 -0.0641407 -0.067367 -0.0689371
265.0 -0.0443409 -0.0862137 -0.0418728 0.0652773 -0.00123408 -0.0640433 0.0771174 0.0138937 -0.0399978 -0.0642867 -0.067544 -0.0691251
266.0 -0.0444194 -0.0863235 -0.0419041 0.0653714 -0.00125765 -0.0641138 0.0772638 0.0140712 -0.0400307 -0.0644224 -0.0677086 -0.0692997
267.0 -0.0444897 -0.0864168 -0.0419271 0.0654533 -0.00128131 -0.064172 0.0773878 0.0142384 -0.0400596 -0.0645475 -0.0678604 -0.0694606
268.0 -0.0445519 -0.086494 -0.041942 0.065523 -0.00130495 -0.064218 0.0774899 0.0143951 -0.0400848 -0.0646616 -0.0679993 -0.0696078
269.0 -0.044606 -0.086555 -0.041949 0.0655805 -0.0013285 -0.064252 0.0775706 0.014542 -0.040106 -0.0647649 -0.0681254 -0.0697413
270.0 -0.044652 -0.0866 -0.0419481 0.065626 -0.00135195 -0.064274 0.07763 0.0146784 -0.040123 -0.0648572 -0.0682385 -0.0698609
271.0 -0.0446899 -0.0866292 -0.0419393 0.0656595 -0.00137533 -0.0642842 0.0776692 0.0148055 -0.0401362 -0.0649382 -0.0683388 -0.0699666
272.0 -0.0447197 -0.0866426 -0.0419229 0.0656811 -0.00139838 -0.0642828 0.0776885 0.0149228 -0.0401448 -0.0650085 -0.0684257 -0.0700585
273.0 -0.0447416 -0.0866405 -0.0418989 0.065691 -0.00142133 -0.0642697 0.0776878 0.0150304 -0.0401493 -0.0650678 -0.0685001 -0.0701369
274.0 -0.0447553 -0.0866229 -0.0418676 0.0656891 -0.00144388 -0.0642452 0.0776687 0.0151291 -0.0401494 -0.0651155 -0.0685612 -0.0702012
275.0 -0.0447612 -0.0865901 -0.0418288 0.0656757 -0.0014662 -0.0642095 0.0776311 0.0152187 -0.0401448 -0.0651523 -0.0686095 -0.0702519
276.0 -0.0447593 -0.0865422 -0.0417828 0.0656508 -0.00148825 -0.0641625 0.0775759 0.0152997 -0.0401357 -0.0651778 -0.0686448 -0.070289
277.0 -0.0447496 -0.0864794 -0.0417298 0.0656145 -0.00150993 -0.0641046 0.0775036 0.0153723 -0.0401218 -0.0651921 -0.0686673 -0.0703125
278.0 -0.0447323 -0.086402 -0.0416697 0.0655671 -0.00153131 -0.0640358 0.0774148 0.0154364 -0.0401032 -0.0651954 -0.0686768 -0.0703225
279.0 -0.0447073 -0.0863099 -0.0416025 0.0655086 -0.0015524 -0.0639562 0.07731 0.0154928 -0.0400796 -0.0651875 -0.0686739 -0.0703192
280.0 -0.0446749 -0.0862035 -0.0415286 0.0654392 -0.00157313 -0.0638661 0.07719 0.0155419 -0.040051 -0.0651683 -0.0686581 -0.0703023
281.0 -0.0446351 -0.086083 -0.0414479 0.065359 -0.00159357 -0.0637655 0.0770551 0.0155832 -0.0400176 -0.0651385 -0.0686301 -0.0702728
282.0 -0.0445879 -0.0859485 -0.0413606 0.0652682 -0.00161367 -0.0636545 0.0769064 0.015618 -0.0399788 -0.0650972 -0.0685894 -0.0702299
283.0 -0.0445337 -0.0858003 -0.0412666 0.065167 -0.00163353 -0.0635334 0.0767442 0.0156461 -0.0399349 -0.0650453 -0.0685364 -0.0701743
284.0 -0.0444723 -0.0856384 -0.0411661 0.0650554 -0.00165308 -0.0634023 0.0765688 0.0156678 -0.0398858 -0.0649823 -0.0684714 -0.0701061
285.0 -0.044404 -0.0854631 -0.0410592 0.0649336 -0.00167242 -0.0632611 0.0763813 0.0156837 -0.0398315 -0.0649087 -0.0683942 -0.0700252
286.0 -0.0443289 -0.0852746 -0.0409457 0.0648018 -0.00169159 -0.0631102 0.0761821 0.0156938 -0.0397717 -0.0648242 -0.0683052 -0.069932
287.0 -0.044247 -0.085073 -0.040826 0.06466 -0.00171048 -0.0629495 0.0759716 0.0156989 -0.0397064 -0.0647288 -0.0682044 -0.0698263
288.0 -0.0441584 -0.0848585 -0.0407 0.0645084 -0.00172919 -0.0627793 0.0757506 0.0156989 -0.0396354 -0.064623 -0.0680918 -0.0697087
289.0 -0.0440634 -0.0846311 -0.0405677 0.0643473 -0.00174783 -0.0625994 0.0755194 0.0156942 -0.0395592 -0.0645067 -0.0679679 -0.0695793
290.0 -0.0439619 -0.0843912 -0.0404293 0.0641766 -0.00176631 -0.0624102 0.0752784 0.0156854 -0.0394771 -0.06438 -0.0678327 -0.0694381
291.0 -0.0438541 -0.0841388 -0.0402847 0.0639964 -0.00178469 -0.0622117 0.0750281 0.0156726 -0.0393896 -0.0642429 -0.0676861 -0.0692853
292.0 -0.0437401 -0.083874 -0.0401339 0.063807 -0.0018031 -0.0620039 0.0747694 0.0156565 -0.0392963 -0.0640957 -0.0675285 -0.0691211
293.0 -0.0436199 -0.0835971 -0.0399772 0.0636085 -0.00182137 -0.0617871 0.0745018 0.0156365 -0.0391973 -0.0639384 -0.0673602 -0.0689459
294.0 -0.0434937 -0.0833079 -0.0398142 0.0634008 -0.00183972 -0.0615611 0.0742265 0.015614 -0.0390923 -0.0637709 -0.0671808 -0.0687592
295.0 -0.0433615 -0.0830069 -0.0396453 0.0631842 -0.0018581 -0.0613261 0.0739435 0.0155889 -0.0389816 -0.0635934 -0.066991 -0.0685619
296.0 -0.0432235 -0.0826939 -0.0394703 0.0629587 -0.00187658 -0.0610821 0.0736528 0.0155609 -0.0388651 -0.0634062 -0.0667909 -0.068354
297.0 -0.0430796 -0.0823691 -0.0392894 0.0627243 -0.00189509 -0.0608293 0.0733555 0.0155309 -0.0387427 -0.0632091 -0.0665803 -0.0681353
298.0 -0.0429301 -0.0820327 -0.0391026 0.0624814 -0.00191376 -0.0605676 0.0730512 0.0154992 -0.0386142 -0.0630023 -0.0663593 -0.0679063
299.0 -0.0427749 -0.0816846 -0.0389097 0.0622297 -0.00193256 -0.0602972 0.0727402 0.0154661 -0.03848 -0.0627858 -0.0661285 -0.0676669
300.0 -0.0426141 -0.0813251 -0.038711 0.0619696 -0.00195153 -0.060018 0.0724228 0.0154308 -0.0383402 -0.0625604 -0.065888 -0.0674178
301.0 -0.0424477 -0.0809541 -0.0385064 0.0617009 -0.00197069 -0.0597302 0.0720992 0.0153949 -0.0381942 -0.0623254 -0.0656377 -0.0671586
302.0 -0.042276 -0.0805718 -0.0382958 0.0614239 -0.0019901 -0.0594338 0.0717696 0.0153578 -0.0380423 -0.0620812 -0.0653777 -0.0668896
303.0 -0.0420988 -0.0801783 -0.0380795 0.0611385 -0.00200961 -0.0591289 0.071434 0.01532 -0.0378844 -0.0618276 -0.0651083 -0.066611
304.0 -0.0419162 -0.0797736 -0.0378573 0.0608449 -0.00202944 -0.0588154 0.0710924 0.0152816 -0.0377207 -0.0615653 -0.0648295 -0.066323
305.0 -0.0417284 -0.0793577 -0.0376294 0.0605431 -0.00204951 -0.0584935 0.070745 0.0152427 -0.0375513 -0.061294 -0.0645418 -0.0660258
306.0 -0.0415353 -0.078931 -0.0373957 0.0602331 -0.0020698 -0.0581633 0.0703917 0.0152034 -0.037376 -0.0610142 -0.0642451 -0.0657195
307.0 -0.0413369 -0.0784932 -0.0371563 0.0599151 -0.00209033 -0.0578248 0.0700326 0.0151639 -0.0371947 -0.0607254 -0.0639393 -0.065404
308.0 -0.0411334 -0.0780447 -0.0369113 0.059589 -0.00211106 -0.057478 0.0696675 0.0151241 -0.0370081 -0.0604282 -0.0636251 -0.0650799
309.0 -0.0409247 -0.0775854 -0.0366607 0.0592551 -0.00213202 -0.057123 0.0692967 0.0150845 -0.0368156 -0.0601226 -0.0633021 -0.0647469
310.0 -0.0407109 -0.0771155 -0.0364045 0.0589132 -0.00215322 -0.05676 0.0689198 0.0150448 -0.0366174 -0.0598087 -0.0629708 -0.0644056
311.0 -0.0404921 -0.076635 -0.0361429 0.0585635 -0.00217459 -0.0563889 0.0685368 0.0150052 -0.0364137 -0.0594868 -0.062631 -0.0640558
312.0 -0.0402682 -0.0761441 -0.0358759 0.0582061 -0.00219616 -0.05601 0.0681478 0.0149655 -0.0362046 -0.0591568 -0.0622832 -0.0636978
313.0 -0.0400392 -0.0756429 -0.0356037 0.0578411 -0.00221777 -0.0556233 0.067752 0.0149262 -0.03599 -0.0588189 -0.0619275 -0.0633315
314.0 -0.0398053 -0.0751315 -0.0353262 0.0574684 -0.00223953 -0.0552289 0.0673502 0.0148867 -0.03577 -0.0584733 -0.0615639 -0.0629575
315.0 -0.0395664 -0.0746101 -0.0350437 0.0570882 -0.00226136 -0.0548269 0.0669416 0.0148473 -0.035545 -0.0581201 -0.0611927 -0.0625757
316.0 -0.0393226 -0.0740787 -0.0347561 0.0567006 -0.00228322 -0.0544174 0.0665263 0.0148079 -0.0353147 -0.0577593 -0.0608138 -0.0621862
317.0 -0.0390738 -0.0735376 -0.0344638 0.0563057 -0.00230498 -0.0540007 0.0661041 0.0147685 -0.0350794 -0.0573915 -0.0604277 -0.0617894
318.0 -0.0388202 -0.0729869 -0.0341667 0.0559035 -0.00232671 -0.0535768 0.0656747 0.014729 -0.0348394 -0.0570162 -0.0600341 -0.0613851
319.0 -0.0385617 -0.0724266 -0.0338649 0.0554941 -0.00234837 -0.0531457 0.0652379 0.0146892 -0.0345943 -0.0566342 -0.0596335 -0.0609736
320.0 -0.0382983 -0.0718571 -0.0335588 0.0550777 -0.00236974 -0.0527079 0.064794 0.0146493 -0.0343447 -0.0562453 -0.059226 -0.0605551
321.0 -0.0380302 -0.0712785 -0.0332484 0.0546544 -0.00239092 -0.0522634 0.0643421 0.0146088 -0.0340906 -0.0558497 -0.0588117 -0.0601297
322.0 -0.0377573 -0.070691 -0.0329337 0.0542241 -0.00241179 -0.0518123 0.0638829 0.0145682 -0.0338319 -0.0554473 -0.0583906 -0.0596973
323.0 -0.0374797 -0.0700947 -0.0326151 0.0537872 -0.00243232 -0.0513549 0.0634153 0.0145264 -0.0335691 -0.0550387 -0.0579632 -0.0592586
324.0 -0.0371973 -0.0694901 -0.0322927 0.0533437 -0.0024523 -0.0508914 0.0629396 0.0144841 -0.033302 -0.0546239 -0.0575293 -0.0588134
325.0 -0.0369104 -0.068877 -0.0319666 0.0528937 -0.00247191 -0.0504218 0.062456 0.0144408 -0.033031 -0.054203 -0.057089 -0.0583617
326.0 -0.0366188 -0.0682559 -0.0316371 0.0524373 -0.00249084 -0.0499465 0.0619637 0.0143963 -0.0327561 -0.0537763 -0.056643 -0.0579041
327.0 -0.0363226 -0.067627 -0.0313044 0.0519748 -0.00250913 -0.0494657 0.0614631 0.0143507 -0.0324774 -0.0533436 -0.0561908 -0.0574402
328.0 -0.036022 -0.0669905 -0.0309685 0.0515062 -0.00252673 -0.0489795 0.0609539 0.0143036 -0.0321951 -0.0529053 -0.0557327 -0.0569705
329.0 -0.0357168 -0.0663466 -0.0306298 0.0510317 -0.00254351 -0.0484882 0.0604359 0.0142548 -0.0319096 -0.0524619 -0.0552692 -0.056495
330.0 -0.0354072 -0.0656957 -0.0302885 0.0505515 -0.00255934 -0.0479921 0.0599089 0.0142042 -0.0316207 -0.0520131 -0.0548003 -0.056014
331.0 -0.0350933 -0.0650379 -0.0299446 0.0500656 -0.00257435 -0.0474913 0.0593734 0.0141519 -0.0313287 -0.051559 -0.0543257 -0.0555273
332.0 -0.0347751 -0.0643737 -0.0295986 0.0495744 -0.00258825 -0.0469861 0.0588289 0.0140972 -0.0310337 -0.0511 -0.0538461 -0.0550355
333.0 -0.0344526 -0.0637031 -0.0292505 0.0490779 -0.00260108 -0.0464768 0.0582752 0.01404 -0.0307361 -0.0506362 -0.0533614 -0.0545385
334.0 -0.0341261 -0.0630266 -0.0289005 0.0485763 -0.00261276 -0.0459636 0.057713 0.0139807 -0.0304357 -0.0501679 -0.0528717 -0.0540363
335.0 -0.0337954 -0.0623444 -0.028549 0.0480699 -0.00262318 -0.0454467 0.0571417 0.0139185 -0.0301328 -0.0496949 -0.0523773 -0.0535293
336.0 -0.0334608 -0.0616569 -0.0281961 0.0475588 -0.00263233 -0.0449265 0.0565618 0.0138536 -0.0298275 -0.0492177 -0.0518781 -0.0530174
337.0 -0.0331222 -0.0609642 -0.0278421 0.0470432 -0.00264006 -0.0444031 0.0559731 0.0137856 -0.0295201 -0.0487363 -0.0513746 -0.052501
338.0 -0.0327798 -0.0602668 -0.027487 0.0465233 -0.00264642 -0.0438769 0.0553759 0.0137147 -0.0292105 -0.0482509 -0.0508665 -0.05198
339.0 -0.0324338 -0.0595649 -0.0271311 0.0459994 -0.00265135 -0.043348 0.05477 0.0136401 -0.0288993 -0.0477617 -0.0503544 -0.0514548
340.0 -0.0320842 -0.0588589 -0.0267748 0.0454716 -0.00265468 -0.0428169 0.0541558 0.0135622 -0.0285864 -0.0472689 -0.0498383 -0.0509255
341.0 -0.0317311 -0.0581491 -0.026418 0.0449401 -0.00265652 -0.0422836 0.0535336 0.0134809 -0.0282716 -0.0467724 -0.049318 -0.0503919
342.0 -0.0313746 -0.0574358 -0.0260612 0.0444052 -0.00265671 -0.0417485 0.0529035 0.0133959 -0.0279553 -0.0462727 -0.0487941 -0.0498545
343.0 -0.0310149 -0.0567193 -0.0257044 0.0438671 -0.00265525 -0.0412119 0.0522655 0.0133072 -0.0276378 -0.0457697 -0.0482666 -0.0493133
344.0 -0.0306521 -0.0559999 -0.0253478 0.043326 -0.00265211 -0.0406739 0.0516205 0.0132145 -0.0273192 -0.0452637 -0.0477356 -0.0487685
345.0 -0.0302863 -0.0552781 -0.0249918 0.0427822 -0.00264724 -0.0401349 0.0509681 0.0131181 -0.0269994 -0.0447547 -0.0472012 -0.0482204
346.0 -0.0299177 -0.0545539 -0.0246363 0.0422358 -0.0026407 -0.0395951 0.0503087 0.0130173 -0.0266789 -0.0442431 -0.0466637 -0.0476689
347.0 -0.0295464 -0.053828 -0.0242816 0.0416872 -0.0026324 -0.0390548 0.0496429 0.0129127 -0.0263575 -0.0437291 -0.0461232 -0.0471144
348.0 -0.0291727 -0.0531005 -0.0239278 0.0411366 -0.00262241 -0.0385142 0.0489713 0.0128043 -0.0260353 -0.0432123 -0.0455798 -0.0465567
349.0 -0.0287965 -0.0523718 -0.0235753 0.0405841 -0.00261059 -0.0379736 0.0482937 0.0126917 -0.0257125 -0.0426934 -0.0450337 -0.0459964
350.0 -0.0284182 -0.0516422 -0.0232241 0.0400302 -0.00259705 -0.0374332 0.0476108 0.012575 -0.0253893 -0.0421726 -0.0444852 -0.0454335
351.0 -0.0280378 -0.050912 -0.0228742 0.0394749 -0.00258177 -0.0368931 0.0469226 0.012454 -0.025066 -0.0416498 -0.0439343 -0.0448681
352.0 -0.0276556 -0.0501815 -0.0225259 0.0389186 -0.00256484 -0.0363537 0.0462305 0.0123296 -0.0247421 -0.041125 -0.0433809 -0.0443002
353.0 -0.0272717 -0.0494511 -0.0221794 0.0383614 -0.00254618 -0.0358152 0.0455338 0.0122007 -0.0244183 -0.0405989 -0.0428258 -0.0437305
354.0 -0.0268864 -0.0487211 -0.0218347 0.0378038 -0.00252584 -0.0352779 0.0448337 0.0120679 -0.0240945 -0.0400713 -0.0422688 -0.0431588
355.0 -0.0264998 -0.0479918 -0.0214921 0.0372458 -0.00250386 -0.0347419 0.0441306 0.0119316 -0.0237707 -0.0395423 -0.0417101 -0.0425853
356.0 -0.0261121 -0.0472635 -0.0211514 0.0366878 -0.00248034 -0.0342075 0.0434248 0.0117914 -0.0234472 -0.0390125 -0.0411501 -0.0420104
357.0 -0.0257235 -0.0465366 -0.020813 0.03613 -0.00245524 -0.0336748 0.0427166 0.0116475 -0.0231242 -0.0384817 -0.0405887 -0.0414341
358.0 -0.0253342 -0.0458111 -0.0204769 0.0355726 -0.00242862 -0.033144 0.0420067 0.0115 -0.0228011 -0.0379499 -0.0400261 -0.0408566
359.0 -0.0249444 -0.0450877 -0.0201433 0.0350161 -0.00240054 -0.0326155 0.0412958 0.0113493 -0.0224788 -0.037418 -0.0394628 -0.0402783
360.0 -0.0245543 -0.0443665 -0.0198122 0.0344604 -0.00237106 -0.0320894 0.0405842 0.0111952 -0.0221571 -0.0368854 -0.0388986 -0.0396992
361.0 -0.0241642 -0.0436478 -0.0194836 0.033906 -0.0023403 -0.0315657 0.0398725 0.011038 -0.0218359 -0.0363528 -0.0383341 -0.0391196
362.0 -0.0237742 -0.042932 -0.0191577 0.0333531 -0.00230826 -0.0310449 0.039161 0.0108777 -0.0215158 -0.0358202 -0.0377694 -0.0385399
363.0 -0.0233846 -0.0422191 -0.0188345 0.0328018 -0.00227501 -0.0305268 0.0384505 0.0107148 -0.0211963 -0.0352877 -0.0372044 -0.03796
364.0 -0.0229955 -0.0415097 -0.0185142 0.0322526 -0.00224068 -0.0300119 0.0377413 0.0105492 -0.0208778 -0.0347557 -0.0366397 -0.0373802
365.0 -0.0226072 -0.0408039 -0.0181967 0.0317055 -0.00220523 -0.0295003 0.037034 0.0103812 -0.0205604 -0.0342243 -0.0360753 -0.036801
366.0 -0.0222199 -0.0401019 -0.0178821 0.0311609 -0.00216889 -0.028992 0.0363291 0.010211 -0.020244 -0.0336936 -0.0355116 -0.0362222
367.0 -0.0218337 -0.0394043 -0.0175705 0.030619 -0.00213161 -0.0284874 0.035627 0.0100387 -0.019929 -0.0331639 -0.0349487 -0.0356444
368.0 -0.021449 -0.038711 -0.017262 0.03008 -0.00209353 -0.0279865 0.0349283 0.00986455 -0.0196152 -0.0326355 -0.0343868 -0.0350677
369.0 -0.0210659 -0.0380224 -0.0169565 0.0295442 -0.00205472 -0.0274894 0.0342334 0.00968883 -0.0193027 -0.0321083 -0.0338262 -0.0344924
370.0 -0.0206847 -0.0373387 -0.016654 0.0290117 -0.0020153 -0.0269964 0.0335429 0.00951168 -0.0189918 -0.0315828 -0.0332671 -0.0339186
371.0 -0.0203054 -0.0366603 -0.0163549 0.0284828 -0.00197524 -0.0265076 0.032857 0.00933318 -0.0186826 -0.0310591 -0.0327099 -0.0333468
372.0 -0.0199284 -0.0359872 -0.0160588 0.0279578 -0.00193477 -0.026023 0.0321763 0.00915388 -0.0183748 -0.0305374 -0.0321545 -0.032777
373.0 -0.0195538 -0.0353198 -0.015766 0.0274368 -0.00189389 -0.0255429 0.0315012 0.0089737 -0.018069 -0.0300179 -0.0316015 -0.0322095
374.0 -0.0191818 -0.0346583 -0.0154764 0.02692 -0.00185269 -0.0250673 0.030832 0.0087929 -0.0177649 -0.0295008 -0.0310509 -0.0316446
375.0 -0.0188127 -0.0340028 -0.0151901 0.0264077 -0.00181127 -0.0245964 0.0301695 0.00861181 -0.0174627 -0.0289864 -0.0305031 -0.0310826
376.0 -0.0184465 -0.0333536 -0.0149071 0.0259001 -0.00176967 -0.0241304 0.0295138 0.00843081 -0.0171625 -0.0284747 -0.0299581 -0.0305236
377.0 -0.0180835 -0.0327109 -0.0146274 0.0253972 -0.00172808 -0.0236691 0.0288648 0.0082495 -0.0168645 -0.0279661 -0.0294163 -0.029968
378.0 -0.0177239 -0.032075 -0.0143511 0.0248994 -0.0016864 -0.023213 0.0282237 0.00806872 -0.0165686 -0.0274608 -0.0288779 -0.029416
379.0 -0.0173678 -0.0314459 -0.0140781 0.0244068 -0.00164483 -0.022762 0.0275902 0.00788818 -0.016275 -0.0269589 -0.0283433 -0.0288677
380.0 -0.0170153 -0.0308239 -0.0138086 0.0239196 -0.00160337 -0.0223162 0.026965 0.00770846 -0.0159837 -0.0264606 -0.0278125 -0.0283235
381.0 -0.0166667 -0.0302091 -0.0135424 0.0234379 -0.00156218 -0.0218757 0.026348 0.00752953 -0.0156949 -0.0259662 -0.0272858 -0.0277836
382.0 -0.0163221 -0.0296017 -0.0132796 0.0229619 -0.00152123 -0.0214407 0.0257399 0.00735179 -0.0154086 -0.0254758 -0.0267633 -0.0272482
383.0 -0.0159816 -0.0290019 -0.0130203 0.0224917 -0.00148062 -0.0210111 0.0251406 0.00717501 -0.0151249 -0.0249897 -0.0262454 -0.0267175
384.0 -0.0156454 -0.0284098 -0.0127645 0.0220276 -0.00144044 -0.0205872 0.0245504 0.00699962 -0.014844 -0.024508 -0.0257325 -0.0261918
385.0 -0.0153135 -0.0278255 -0.0125121 0.0215695 -0.00140069 -0.0201688 0.0239697 0.00682599 -0.0145657 -0.0240308 -0.0252243 -0.0256713
386.0 -0.0149861 -0.0272493 -0.0122632 0.0211177 -0.00136148 -0.0197562 0.0233985 0.00665396 -0.0142903 -0.0235585 -0.0247213 -0.0251561
387.0 -0.0146634 -0.0266812 -0.0120179 0.0206723 -0.00132275 -0.0193496 0.0228369 0.0064837 -0.014018 -0.0230912 -0.0242238 -0.0246466
388.0 -0.0143453 -0.0261212 -0.0117759 0.0202333 -0.00128474 -0.0189485 0.0222854 0.00631558 -0.0137484 -0.0226289 -0.0237316 -0.0241426
389.0 -0.0140321 -0.0255697 -0.0115376 0.0198009 -0.00124727 -0.0185536 0.0217437 0.00614946 -0.013482 -0.0221719 -0.0232454 -0.0236448
390.0 -0.0137238 -0.0250266 -0.0113028 0.0193752 -0.00121049 -0.0181647 0.0212121 0.00598551 -0.0132189 -0.0217205 -0.022765 -0.0231531
391.0 -0.0134205 -0.0244919 -0.0110715 0.0189562 -0.0011745 -0.0177817 0.020691 0.00582408 -0.0129588 -0.0212745 -0.0222906 -0.0226675
392.0 -0.0131222 -0.0239659 -0.0108437 0.018544 -0.00113921 -0.0174048 0.0201799 0.00566513 -0.0127021 -0.0208343 -0.0218224 -0.0221886
393.0 -0.012829 -0.0234487 -0.0106197 0.0181388 -0.00110461 -0.0170342 0.0196792 0.00550848 -0.0124488 -0.0204 -0.0213607 -0.0217163
394.0 -0.0125409 -0.02294 -0.0103991 0.0177405 -0.00107092 -0.0166696 0.0191889 0.00535463 -0.0121988 -0.0199717 -0.0209054 -0.0212506
395.0 -0.0122581 -0.0224401 -0.010182 0.0173491 -0.00103803 -0.0163111 0.0187092 0.00520363 -0.0119522 -0.0195493 -0.0204567 -0.0207917
396.0 -0.0119805 -0.0219493 -0.0099688 0.0169649 -0.00100584 -0.015959 0.0182396 0.00505516 -0.0117093 -0.0191334 -0.0200149 -0.02034
397.0 -0.0117082 -0.0214672 -0.00975901 0.0165877 -0.000974603 -0.0156131 0.0177805 0.00490948 -0.0114699 -0.0187238 -0.0195799 -0.0198954
398.0 -0.0114412 -0.0209938 -0.00955267 0.0162175 -0.00094425 -0.0152732 0.017332 0.00476697 -0.0112339 -0.0183203 -0.0191518 -0.0194578
399.0 -0.0111795 -0.0205296 -0.00935018 0.0158546 -0.000914646 -0.0149399 0.0168936 0.00462724 -0.0110018 -0.0179236 -0.0187308 -0.0190276
400.0 -0.0109231 -0.0200742 -0.00915112 0.0154987 -0.00088599 -0.0146127 0.0164655 0.00449042 -0.0107733 -0.0175333 -0.018317 -0.0186048
401.0 -0.010672 -0.0196278 -0.00895575 0.0151499 -0.000858144 -0.0142918 0.0160478 0.00435671 -0.0105486 -0.0171498 -0.0179103 -0.0181894
402.0 -0.0104263 -0.0191901 -0.00876385 0.0148082 -0.000831207 -0.013977 0.0156402 0.004226 -0.0103275 -0.0167728 -0.0175107 -0.0177814
403.0 -0.0101858 -0.0187615 -0.00857571 0.0144737 -0.00080506 -0.0136686 0.0152426 0.00409823 -0.0101104 -0.0164027 -0.0171187 -0.0173811
404.0 -0.00995065 -0.0183417 -0.00839104 0.0141462 -0.000779804 -0.0133664 0.014855 0.00397361 -0.00989703 -0.0160394 -0.0167339 -0.0169883
405.0 -0.00972077 -0.0179306 -0.00820986 0.0138257 -0.000755453 -0.0130702 0.0144772 0.0038519 -0.0096875 -0.0156827 -0.0163564 -0.0166031
406.0 -0.00949608 -0.0175285 -0.0080324 0.0135123 -0.000731836 -0.0127804 0.0141094 0.0037334 -0.00948178 -0.0153331 -0.0159865 -0.0162256
407.0 -0.00927656 -0.0171349 -0.00785836 0.0132057 -0.000709103 -0.0124966 0.0137509 0.00361769 -0.00927994 -0.0149902 -0.0156239 -0.0158556
408.0 -0.00906222 -0.0167502 -0.00768794 0.0129062 -0.000687136 -0.0122191 0.0134019 0.00350515 -0.00908198 -0.0146543 -0.0152688 -0.0154933
409.0 -0.00885303 -0.0163739 -0.00752092 0.0126135 -0.000666051 -0.0119474 0.0130627 0.0033955 -0.00888792 -0.0143251 -0.0149209 -0.0151386
410.0 -0.00864881 -0.0160063 -0.00735751 0.0123276 -0.000645647 -0.0116819 0.0127324 0.00328897 -0.00869761 -0.0140029 -0.0145805 -0.0147916
411.0 -0.00844957 -0.0156471 -0.00719752 0.0120483 -0.000626025 -0.0114223 0.0124109 0.00318518 -0.00851126 -0.0136874 -0.0142475 -0.014452
412.0 -0.0082553 -0.0152963 -0.00704099 0.0117758 -0.000607158 -0.0111686 0.0120987 0.00308441 -0.00832871 -0.0133788 -0.0139218 -0.01412
413.0 -0.00806598 -0.0149539 -0.0068879 0.0115099 -0.000589039 -0.0109209 0.011795 0.00298637 -0.00815009 -0.013077 -0.0136034 -0.0137956
414.0 -0.00788141 -0.0146196 -0.00673814 0.0112505 -0.00057164 -0.0106788 0.0114999 0.00289117 -0.00797526 -0.0127819 -0.0132922 -0.0134785
415.0 -0.00770154 -0.0142932 -0.00659161 0.0109973 -0.000554965 -0.0104424 0.0112135 0.00279904 -0.00780401 -0.0124933 -0.012988 -0.0131687
416.0 -0.00752638 -0.0139751 -0.00644868 0.0107507 -0.000538851 -0.0102119 0.0109348 0.00270915 -0.0076369 -0.0122116 -0.0126913 -0.0128664
417.0 -0.0073558 -0.0136648 -0.00630899 0.0105103 -0.000523403 -0.00998689 0.0106643 0.0026221 -0.00747349 -0.0119365 -0.0124015 -0.0125713
418.0 -0.00718981 -0.0133623 -0.00617244 0.010276 -0.000508688 -0.00976735 0.010402 0.00253774 -0.0073137 -0.0116679 -0.0121187 -0.0122833
419.0 -0.00702816 -0.0130673 -0.00603917 0.0100477 -0.000494494 -0.00955325 0.0101472 0.0024561 -0.00715752 -0.0114056 -0.0118428 -0.0120025
420.0 -0.00687088 -0.0127799 -0.00590907 0.00982541 -0.000480906 -0.00934451 0.00989974 0.00237669 -0.00700514 -0.0111498 -0.0115737 -0.0117285
421.0 -0.00671787 -0.0124999 -0.00578206 0.0096089 -0.000467908 -0.00914099 0.0096598 0.00229996 -0.00685626 -0.0109002 -0.0113113 -0.0114615
422.0 -0.00656912 -0.0122273 -0.00565818 0.00939822 -0.00045547 -0.00894275 0.0094273 0.0022257 -0.006711 -0.010657 -0.0110556 -0.0112013
423.0 -0.00642443 -0.0119619 -0.00553749 0.00919318 -0.000443467 -0.00874971 0.00920136 0.00215353 -0.00656941 -0.0104199 -0.0108065 -0.0109479
424.0 -0.00628379 -0.0117035 -0.00541968 0.00899363 -0.000432057 -0.00856157 0.00898218 0.00208369 -0.00643128 -0.0101889 -0.0105639 -0.0107011
425.0 -0.00614703 -0.0114518 -0.00530477 0.00879942 -0.000421133 -0.00837829 0.00877009 0.00201643 -0.00629637 -0.00996365 -0.0103274 -0.0104606
426.0 -0.0060141 -0.011207 -0.00519285 0.00861053 -0.000410627 -0.0081999 0.00856426 0.00195119 -0.0061649 -0.00974433 -0.0100973 -0.0102265
427.0 -0.00588499 -0.0109688 -0.00508385 0.00842692 -0.00040057 -0.00802635 0.00836444 0.0018878 -0.00603696 -0.00953089 -0.00987335 -0.00999883
428.0 -0.00575961 -0.0107373 -0.00497766 0.00824844 -0.000390976 -0.00785746 0.00817093 0.0018268 -0.00591223 -0.00932312 -0.00965544 -0.00977729
429.0 -0.00563782 -0.010512 -0.00487421 0.00807493 -0.000381806 -0.00769312 0.00798357 0.0017676 -0.00579078 -0.0091209 -0.00944344 -0.00956176
430.0 -0.00551939 -0.0102928 -0.00477338 0.00790608 -0.000373005 -0.00753308 0.00780188 0.00171059 -0.00567227 -0.00892391 -0.00923703 -0.00935198
431.0 -0.00540436 -0.0100796 -0.00467523 0.00774198 -0.000364569 -0.00737741 0.00762567 0.00165545 -0.00555695 -0.00873238 -0.00903638 -0.00914805
432.0 -0.00529281 -0.00987257 -0.00457977 0.00758269 -0.000356519 -0.00722617 0.00745486 0.0016019 -0.00544489 -0.00854622 -0.00884139 -0.00894989
433.0 -0.00518449 -0.00967147 -0.00448698 0.00742798 -0.000348754 -0.00707923 0.00728939 0.0015502 -0.00533582 -0.00836524 -0.00865187 -0.00875733
434.0 -0.00507935 -0.00947593 -0.00439658 0.00727764 -0.000341384 -0.00693626 0.00712919 0.00150033 -0.00522962 -0.00818919 -0.00846764 -0.00857016
435.0 -0.00497722 -0.00928588 -0.00430866 0.00713155 -0.000334282 -0.00679727 0.00697421 0.00145235 -0.00512622 -0.00801804 -0.00828855 -0.00838825
436.0 -0.00487801 -0.00910098 -0.00422297 0.0069895 -0.000327518 -0.00666198 0.00682363 0.00140579 -0.00502554 -0.00785151 -0.00811436 -0.00821133
437.0 -0.00478177 -0.00892137 -0.0041396 0.00685157 -0.000321085 -0.00653049 0.00667776 0.00136083 -0.00492765 -0.00768971 -0.00794519 -0.0080395
438.0 -0.00468846 -0.00874733 -0.00405886 0.00671789 -0.0003148 -0.0064031 0.00653656 0.00131742 -0.00483268 -0.00753278 -0.00778111 -0.00787287
439.0 -0.00459793 -0.00857822 -0.0039803 0.00658807 -0.000308814 -0.00627926 0.00639986 0.00127543 -0.00474036 -0.00738034 -0.00762177 -0.00771105
440.0 -0.00450998 -0.00841377 -0.00390379 0.00646187 -0.000303094 -0.00615878 0.00626721 0.0012347 -0.00465058 -0.00723213 -0.00746689 -0.0075538
441.0 -0.00442459 -0.00825412 -0.00382952 0.00633936 -0.000297534 -0.00604182 0.00613873 0.00119569 -0.00456322 -0.00708816 -0.0073165 -0.0074011
442.0 -0.00434178 -0.00809883 -0.00375705 0.0062203 -0.000292365 -0.00592794 0.00601454 0.00115817 -0.00447805 -0.00694809 -0.00717026 -0.00725267
443.0 -0.00426139 -0.00794817 -0.00368677 0.00610478 -0.000287309 -0.00581747 0.00589386 0.00112157 -0.00439556 -0.0068123 -0.00702847 -0.00710873
444.0 -0.00418346 -0.00780206 -0.0036186 0.00599276 -0.000282432 -0.00571033 0.00577703 0.00108625 -0.00431548 -0.00668056 -0.00689094 -0.00696912
445.0 -0.00410783 -0.00766014 -0.0035523 0.00588398 -0.000277766 -0.00560622 0.00566402 0.00105239 -0.00423758 -0.00655257 -0.00675737 -0.00683357
446.0 -0.0040344 -0.00752231 -0.00348791 0.00577836 -0.000273246 -0.00550511 0.00555396 0.00101923 -0.00416207 -0.00642841 -0.00662778 -0.00670202
447.0 -0.00396314 -0.00738856 -0.00342542 0.00567585 -0.000268858 -0.00540699 0.00544778 0.0009876 -0.00408846 -0.00630771 -0.00650191 -0.0065743
448.0 -0.00389401 -0.00725844 -0.00336443 0.00557623 -0.000264792 -0.00531144 0.00534488 0.000957105 -0.00401695 -0.00619052 -0.00637968 -0.00645027
449.0 -0.00382694 -0.00713204 -0.0033051 0.00547949 -0.000260918 -0.00521857 0.00524525 0.000927689 -0.00394748 -0.00607671 -0.00626101 -0.00632986
450.0 -0.00376173 -0.00700951 -0.00324778 0.00538562 -0.000256973 -0.00512865 0.00514828 0.000899052 -0.00388001 -0.00596628 -0.00614591 -0.00621308
451.0 -0.00369846 -0.00689054 -0.00319208 0.0052945 -0.000253192 -0.00504131 0.0050542 0.000871421 -0.00381455 -0.00585915 -0.00603424 -0.00609978
452.0 -0.00363721 -0.00677499 -0.00313778 0.0052061 -0.000249714 -0.00495639 0.00496328 0.000844742 -0.00375102 -0.0057552 -0.0059259 -0.00598986
453.0 -0.00357775 -0.0066631 -0.00308535 0.00512042 -0.000246198 -0.00487423 0.00487525 0.000818946 -0.00368947 -0.00565451 -0.00582094 -0.00588337
454.0 -0.00351992 -0.00655414 -0.00303422 0.00503703 -0.000242847 -0.00479418 0.00478995 0.000794291 -0.00362938 -0.00555648 -0.00571884 -0.00577981
455.0 -0.00346375 -0.00644815 -0.0029844 0.00495595 -0.000239678 -0.00471627 0.00470671 0.000770369 -0.00357094 -0.00546121 -0.00561963 -0.00567918
456.0 -0.00340921 -0.00634508 -0.00293587 0.00487715 -0.000236673 -0.00464047 0.00462621 0.000747209 -0.0035142 -0.00536869 -0.00552328 -0.00558144
457.0 -0.00335623 -0.0062452 -0.00288897 0.00480071 -0.000233631 -0.00456708 0.00454818 0.000724806 -0.00345911 -0.00527896 -0.00542988 -0.00548672
458.0 -0.00330488 -0.00614836 -0.00284348 0.00472662 -0.000230702 -0.00449592 0.00447271 0.000703286 -0.00340578 -0.00519209 -0.00533942 -0.00539497
459.0 -0.00325504 -0.00605437 -0.00279933 0.0046547 -0.000227858 -0.00442685 0.00439927 0.000682495 -0.00335397 -0.00510775 -0.0052516 -0.0053059
460.0 -0.00320661 -0.00596301 -0.0027564 0.00458481 -0.000225102 -0.00435971 0.00432763 0.000662179 -0.00330366 -0.00502584 -0.00516632 -0.00521941
461.0 -0.0031595 -0.00587406 -0.00271456 0.00451678 -0.000222469 -0.00429431 0.00425825 0.000642459 -0.00325469 -0.00494616 -0.0050834 -0.00513529
462.0 -0.0031137 -0.0057875 -0.0026738 0.0044506 -0.000219953 -0.00423065 0.00419114 0.000623621 -0.00320703 -0.00486877 -0.00500286 -0.00505363
463.0 -0.00306915 -0.00570326 -0.00263411 0.00438621 -0.000217523 -0.00416868 0.00412631 0.000605917 -0.00316044 -0.0047934 -0.00492452 -0.0049742
464.0 -0.00302586 -0.00562155 -0.00259569 0.00432371 -0.000215087 -0.00410862 0.00406318 0.000588778 -0.00311521 -0.0047203 -0.00484853 -0.00489716
465.0 -0.00298393 -0.00554235 -0.00255842 0.00426314 -0.000212751 -0.00405039 0.00400137 0.000571545 -0.00307171 -0.00464961 -0.00477495 -0.00482253
466.0 -0.00294313 -0.00546528 -0.00252215 0.0042042 -0.000210492 -0.00399371 0.00394137 0.000554737 -0.00302933 -0.0045808 -0.00470338 -0.00474996
467.0 -0.00290351 -0.00539033 -0.00248682 0.00414692 -0.000208346 -0.00393857 0.00388316 0.000538579 -0.00298827 -0.00451413 -0.00463399 -0.00467956
468.0 -0.0028648 -0.00531756 -0.00245276 0.00409118 -0.000206023 -0.00388516 0.00382673 0.000523512 -0.00294808 -0.00444922 -0.00456652 -0.00461117
469.0 -0.00282713 -0.00524675 -0.00241962 0.00403694 -0.000203757 -0.00383318 0.00377197 0.000509021 -0.00290889 -0.00438607 -0.00450089 -0.00454464
470.0 -0.00279062 -0.00517754 -0.00238692 0.00398408 -0.000201851 -0.00378223 0.00371868 0.000494714 -0.00287085 -0.00432461 -0.00443699 -0.00447984
471.0 -0.00275508 -0.00510988 -0.0023548 0.00393248 -0.000200144 -0.00373234 0.00366719 0.000480929 -0.0028336 -0.00426457 -0.00437464 -0.00441663
472.0 -0.00272043 -0.00504433 -0.0023239 0.00388238 -0.000198265 -0.00368412 0.00361671 0.00046752 -0.00279752 -0.00420643 -0.00431423 -0.00435539
473.0 -0.00268669 -0.00498108 -0.00229438 0.00383389 -0.000196155 -0.00363773 0.00356731 0.00045438 -0.00276277 -0.00415027 -0.00425584 -0.00429618
474.0 -0.00265386 -0.00491945 -0.00226559 0.00378665 -0.00019413 -0.00359252 0.00351935 0.000441865 -0.00272888 -0.00409565 -0.00419906 -0.00423861
475.0 -0.00262198 -0.00485928 -0.0022373 0.00374063 -0.000192343 -0.00354829 0.0034728 0.000429704 -0.00269588 -0.00404245 -0.00414376 -0.00418253
476.0 -0.00259094 -0.00480057 -0.00220963 0.00369575 -0.000190652 -0.0035051 0.00342766 0.000417845 -0.00266369 -0.00399059 -0.00408985 -0.00412787
477.0 -0.00256062 -0.00474323 -0.0021826 0.00365192 -0.000189009 -0.00346292 0.00338391 0.00040665 -0.00263208 -0.00393992 -0.00403725 -0.00407458
478.0 -0.00253104 -0.00468738 -0.00215633 0.00360921 -0.000187357 -0.00342185 0.00334123 0.00039587 -0.00260131 -0.00389062 -0.0039861 -0.00402271
479.0 -0.00250213 -0.00463299 -0.00213086 0.00356756 -0.000185637 -0.00338192 0.0032993 0.000385199 -0.00257147 -0.00384272 -0.00393635 -0.00397227
480.0 -0.00247394 -0.00457982 -0.00210588 0.00352688 -0.000184027 -0.00334285 0.00325835 0.000374977 -0.00254228 -0.003796 -0.00388783 -0.0039231
481.0 -0.00244662 -0.00452824 -0.00208162 0.00348743 -0.0001825 -0.00330493 0.00321866 0.00036499 -0.00251407 -0.0037507 -0.00384078 -0.00387539
482.0 -0.00242 -0.00447818 -0.00205818 0.00344909 -0.000180908 -0.00326818 0.00318 0.000355276 -0.00248663 -0.00370669 -0.00379506 -0.00382903
483.0 -0.00239404 -0.00442955 -0.00203551 0.0034118 -0.000179269 -0.00323253 0.00314242 0.000345953 -0.00245986 -0.00366387 -0.00375062 -0.003784
484.0 -0.00236866 -0.00438179 -0.00201313 0.00337523 -0.000177767 -0.00319746 0.00310546 0.00033664 -0.00243382 -0.00362209 -0.0037072 -0.00373996
485.0 -0.00234378 -0.00433487 -0.0019911 0.00333932 -0.00017634 -0.00316298 0.00306936 0.000327651 -0.00240833 -0.0035812 -0.00366471 -0.00369685
486.0 -0.00231942 -0.00428898 -0.00196956 0.0033042 -0.000174933 -0.00312927 0.00303444 0.000319368 -0.00238314 -0.00354113 -0.00362316 -0.00365476
487.0 -0.00229576 -0.00424432 -0.00194856 0.00327004 -0.000173602 -0.00309644 0.00300054 0.000311466 -0.00235854 -0.00350209 -0.00358269 -0.00361376
488.0 -0.00227265 -0.00420099 -0.00192834 0.00323682 -0.000172153 -0.00306466 0.00296737 0.000303734 -0.00233469 -0.00346421 -0.0035434 -0.00357394
489.0 -0.00225011 -0.00415863 -0.00190852 0.00320437 -0.000170792 -0.00303357 0.00293487 0.000296036 -0.0023115 -0.00342728 -0.00350509 -0.00353511
490.0 -0.00222804 -0.00411725 -0.00188921 0.00317264 -0.000169413 -0.00300323 0.00290286 0.000288318 -0.00228893 -0.00339126 -0.0034677 -0.0034972
491.0 -0.00220652 -0.00407677 -0.00187025 0.00314165 -0.000168137 -0.00297351 0.00287137 0.000280535 -0.00226716 -0.00335629 -0.00343132 -0.00346028
492.0 -0.0021855 -0.00403722 -0.00185172 0.00311136 -0.000166888 -0.00294447 0.00284066 0.000273121 -0.00224583 -0.00332215 -0.00339583 -0.00342426
493.0 -0.00216484 -0.00399857 -0.00183373 0.0030817 -0.000165554 -0.00291615 0.0028112 0.000266555 -0.00222457 -0.00328857 -0.00336105 -0.00338904
494.0 -0.00214458 -0.00396086 -0.00181628 0.00305272 -0.00016415 -0.00288857 0.00278241 0.000260309 -0.00220365 -0.00325568 -0.00332699 -0.00335457
495.0 -0.0021248 -0.0039239 -0.0017991 0.00302435 -0.000162852 -0.0028615 0.00275405 0.000254022 -0.00218344 -0.00322368 -0.00329383 -0.00332095
496.0 -0.00210551 -0.00388768 -0.00178217 0.00299659 -0.000161673 -0.00283492 0.00272644 0.000247761 -0.00216382 -0.00319254 -0.00326149 -0.00328814
497.0 -0.00208661 -0.00385186 -0.00176525 0.00296923 -0.000160681 -0.00280855 0.0026994 0.00024168 -0.00214439 -0.00316176 -0.00322959 -0.00325581
498.0 -0.00206804 -0.00381677 -0.00174873 0.00294241 -0.000159659 -0.00278275 0.00267258 0.000235493 -0.00212542 -0.00313163 -0.00319833 -0.00322411
499.0 -0.00204989 -0.00378292 -0.00173304 0.00291641 -0.000158425 -0.00275798 0.00264606 0.00022938 -0.00210709 -0.00310249 -0.00316808 -0.00319344
500.0 -0.00203217 -0.00375018 -0.00171801 0.00289117 -0.000157081 -0.00273409 0.00262047 0.000223881 -0.00208917 -0.00307427 -0.0031388 -0.00316378
501.0 -0.00201477 -0.00371791 -0.00170315 0.00286634 -0.00015581 -0.00271053 0.00259555 0.000218703 -0.00207155 -0.00304653 -0.00311005 -0.00313463
502.0 -0.00199767 -0.00368598 -0.00168831 0.00284182 -0.000154679 -0.00268715 0.00257118 0.000213555 -0.00205423 -0.00301918 -0.00308168 -0.00310586
503.0 -0.00198087 -0.00365451 -0.00167365 0.00281769 -0.00015361 -0.00266408 0.00254723 0.000208347 -0.00203721 -0.00299229 -0.0030538 -0.0030776
504.0 -0.00196446 -0.00362363 -0.00165917 0.00279405 -0.000152649 -0.0026414 0.00252377 0.000203275 -0.0020205 -0.00296597 -0.00302652 -0.00304996
505.0 -0.00194832 -0.00359345 -0.00164513 0.00277089 -0.000151594 -0.00261929 0.00250076 0.000198426 -0.00200414 -0.00294026 -0.0029999 -0.00302298
506.0 -0.00193252 -0.00356401 -0.00163149 0.00274826 -0.000150511 -0.00259775 0.00247803 0.00019354 -0.00198821 -0.00291516 -0.00297387 -0.00299658
507.0 -0.00191703 -0.00353508 -0.00161805 0.00272606 -0.000149495 -0.00257656 0.0024559 0.000189048 -0.00197241 -0.00289041 -0.00294824 -0.00297061
508.0 -0.00190176 -0.00350672 -0.00160496 0.00270424 -0.000148403 -0.00255584 0.00243404 0.000184724 -0.00195695 -0.00286619 -0.00292314 -0.00294517
509.0 -0.00188679 -0.00347884 -0.00159205 0.00268281 -0.000147367 -0.00253545 0.00241251 0.000180466 -0.00194181 -0.00284248 -0.00289857 -0.00292028
510.0 -0.00187215 -0.00345141 -0.00157926 0.00266178 -0.000146446 -0.00251533 0.00239153 0.000176164 -0.00192713 -0.00281936 -0.00287458 -0.00289595
511.0 -0.00185772 -0.00342463 -0.00156692 0.00264118 -0.0001454 -0.00249578 0.00237076 0.000171785 -0.00191288 -0.00279683 -0.00285118 -0.00287219
512.0 -0.00184348 -0.00339832 -0.00155484 0.0026209 -0.000144321 -0.00247658 0.0023505 0.000167638 -0.00189865 -0.00277455 -0.0028281 -0.00284881
513.0 -0.00182946 -0.00337245 -0.00154299 0.00260095 -0.000143237 -0.00245772 0.00233084 0.000163797 -0.00188446 -0.00275251 -0.00280533 -0.00282577
514.0 -0.00181576 -0.00334693 -0.00153117 0.00258135 -0.000142294 -0.00243905 0.00231122 0.00015992 -0.00187061 -0.00273087 -0.00278294 -0.00280308
515.0 -0.00180236 -0.00332182 -0.00151946 0.00256209 -0.000141452 -0.00242064 0.00229199 0.000156229 -0.00185707 -0.00270969 -0.00276098 -0.00278081
516.0 -0.0017892 -0.00329729 -0.00150809 0.00254324 -0.000140552 -0.00240269 0.00227314 0.000152642 -0.00184395 -0.00268911 -0.00273959 -0.00275909
517.0 -0.00177616 -0.00327299 -0.00149683 0.00252457 -0.000139665 -0.00238491 0.00225449 0.000149125 -0.00183095 -0.00266876 -0.00271848 -0.00273769
518.0 -0.0017632 -0.00324895 -0.00148576 0.00250607 -0.00013872 -0.00236735 0.0022363 0.000145887 -0.0018178 -0.00264848 -0.00269755 -0.00271651
519.0 -0.00175045 -0.0032253 -0.00147485 0.00248787 -0.000137803 -0.00235007 0.00221834 0.000142633 -0.00180491 -0.00262856 -0.00267699 -0.0026957
520.0 -0.00173802 -0.00320232 -0.0014643 0.00247017 -0.000136857 -0.00233331 0.00220055 0.000139122 -0.00179254 -0.00260925 -0.002657 -0.00267543
521.0 -0.00172579 -0.00317978 -0.00145399 0.00245278 -0.000135903 -0.00231688 0.0021829 0.000135474 -0.00178055 -0.00259038 -0.00263741 -0.00265555
522.0 -0.0017138 -0.00315766 -0.00144386 0.00243573 -0.000134971 -0.00230076 0.00216564 0.000132032 -0.00176886 -0.00257197 -0.00261825 -0.0026361
523.0 -0.00170197 -0.00313576 -0.00143379 0.00241887 -0.000134089 -0.00228478 0.00214893 0.000129089 -0.00175707 -0.00255367 -0.00259929 -0.00261689
524.0 -0.00169024 -0.00311394 -0.00142369 0.00240209 -0.000133274 -0.00226882 0.00213238 0.000126404 -0.00174515 -0.00253535 -0.00258039 -0.00259776
525.0 -0.00167873 -0.00309239 -0.00141366 0.00238556 -0.000132535 -0.00225302 0.00211599 0.000123636 -0.00173352 -0.00251736 -0.00256178 -0.00257891
526.0 -0.00166736 -0.00307125 -0.00140389 0.0023693 -0.000131737 -0.00223757 0.0020999 0.000120877 -0.00172209 -0.00249972 -0.00254354 -0.00256042
527.0 -0.00165607 -0.00305062 -0.00139455 0.00235334 -0.00013076 -0.00222258 0.00208399 0.000118032 -0.00171098 -0.0024825 -0.00252572 -0.00254236
528.0 -0.00164496 -0.00303039 -0.00138544 0.00233767 -0.000129759 -0.00220791 0.00206821 0.000114935 -0.00170022 -0.00246569 -0.00250827 -0.00252466
529.0 -0.00163401 -0.00301033 -0.00137632 0.00232217 -0.000128849 -0.00219332 0.00205278 0.000112091 -0.00168944 -0.00244898 -0.00249098 -0.00250714
530.0 -0.00162321 -0.00299018 -0.00136697 0.0023067 -0.000128123 -0.00217857 0.00203757 0.000109551 -0.00167855 -0.00243221 -0.00247366 -0.00248962
531.0 -0.00161264 -0.00297023 -0.00135759 0.00229144 -0.000127522 -0.00216391 0.00202233 0.000106892 -0.00166794 -0.00241574 -0.0024566 -0.00247231
532.0 -0.00160228 -0.00295066 -0.00134838 0.00227647 -0.000126954 -0.00214952 0.00200761 0.000104459 -0.00165747 -0.00239957 -0.00243987 -0.00245534
533.0 -0.00159206 -0.00293163 -0.00133956 0.00226184 -0.000126251 -0.00213559 0.00199319 0.000102238 -0.0016472 -0.0023838 -0.00242357 -0.00243883
534.0 -0.00158182 -0.00291312 -0.0013313 0.00224747 -0.000125264 -0.00212221 0.00197862 9.98569e-05 -0.00163722 -0.00236844 -0.00240767 -0.00242272
535.0 -0.00157167 -0.00289495 -0.00132328 0.00223331 -0.000124198 -0.00210911 0.00196419 9.73192e-05 -0.00162751 -0.00235337 -0.00239205 -0.00240689
536.0 -0.00156165 -0.00287684 -0.0013152 0.00221925 -0.000123224 -0.00209602 0.00195003 9.48159e-05 -0.00161775 -0.0023383 -0.00237645 -0.00239109
537.0 -0.00155171 -0.00285866 -0.00130695 0.00220519 -0.000122383 -0.00208281 0.00193607 9.23008e-05 -0.00160805 -0.00232328 -0.0023609 -0.00237533
538.0 -0.00154194 -0.00284055 -0.00129861 0.00219124 -0.000121668 -0.00206958 0.00192225 8.9886e-05 -0.00159844 -0.00230839 -0.00234547 -0.00235968
539.0 -0.0015324 -0.00282262 -0.00129022 0.00217751 -0.000121089 -0.00205642 0.00190878 8.78028e-05 -0.00158887 -0.00229369 -0.00233026 -0.00234425
540.0 -0.00152312 -0.00280495 -0.00128183 0.00216404 -0.000120648 -0.00204339 0.00189583 8.59653e-05 -0.00157935 -0.00227917 -0.00231528 -0.00232907
541.0 -0.00151388 -0.00278752 -0.00127364 0.0021507 -0.000120123 -0.00203058 0.001883 8.41567e-05 -0.00156993 -0.00226485 -0.00230052 -0.00231413
542.0 -0.00150458 -0.00277039 -0.00126581 0.00213749 -0.000119384 -0.0020181 0.00186999 8.22514e-05 -0.00156064 -0.0022507 -0.00228592 -0.00229937
543.0 -0.00149534 -0.00275365 -0.00125831 0.0021245 -0.000118519 -0.00200598 0.00185666 8.00029e-05 -0.00155165 -0.00223683 -0.00227158 -0.00228484
544.0 -0.00148622 -0.00273722 -0.001251 0.00211172 -0.000117611 -0.00199411 0.00184361 7.77267e-05 -0.00154287 -0.00222323 -0.0022575 -0.00227057
545.0 -0.00147723 -0.00272097 -0.00124374 0.0020991 -0.000116742 -0.00198236 0.00183078 7.54317e-05 -0.00153428 -0.00220989 -0.00224364 -0.00225651
546.0 -0.00146835 -0.00270479 -0.00123645 0.00208657 -0.000115949 -0.00197062 0.00181828 7.33666e-05 -0.0015257 -0.00219666 -0.00222993 -0.0022426
547.0 -0.00145959 -0.00268878 -0.00122919 0.00207419 -0.000115203 -0.00195898 0.00180585 7.13952e-05 -0.00151726 -0.00218365 -0.00221645 -0.00222892
548.0 -0.00145095 -0.00267279 -0.00122184 0.00206187 -0.000114554 -0.00194731 0.00179374 6.97549e-05 -0.00150869 -0.00217061 -0.00220298 -0.00221528
549.0 -0.00144243 -0.0026569 -0.00121446 0.00204967 -0.000113984 -0.00193568 0.00178191 6.81413e-05 -0.00150015 -0.00215764 -0.0021896 -0.00220173
550.0 -0.00143403 -0.00264118 -0.00120714 0.0020376 -0.000113444 -0.00192416 0.00177019 6.63924e-05 -0.00149172 -0.00214477 -0.00217631 -0.00218828
551.0 -0.00142574 -0.00262571 -0.00119997 0.00202573 -0.000112884 -0.00191284 0.00175866 6.4614e-05 -0.00148342 -0.00213207 -0.0021632 -0.002175
552.0 -0.00141743 -0.00261047 -0.00119303 0.00201395 -0.000112199 -0.00190175 0.00174714 6.29372e-05 -0.00147516 -0.00211949 -0.00215022 -0.00216186
553.0 -0.00140919 -0.00259544 -0.00118625 0.00200231 -0.000111469 -0.00189084 0.00173546 6.11669e-05 -0.00146704 -0.00210708 -0.0021374 -0.00214887
554.0 -0.00140099 -0.00258044 -0.00117945 0.00199071 -0.000110772 -0.00187994 0.00172385 5.94101e-05 -0.00145895 -0.00209475 -0.00212467 -0.00213598
555.0 -0.00139285 -0.00256563 -0.00117278 0.00197924 -0.000110036 -0.00186921 0.00171249 5.77081e-05 -0.00145102 -0.00208266 -0.00211219 -0.00212334
556.0 -0.00138489 -0.0025511 -0.00116621 0.001968 -0.000109337 -0.00185866 0.00170116 5.59618e-05 -0.00144334 -0.00207086 -0.00209998 -0.00211096
557.0 -0.00137705 -0.00253671 -0.00115966 0.00195688 -0.000108697 -0.00184818 0.00169 5.43145e-05 -0.00143574 -0.0020592 -0.0020879 -0.00209871
558.0 -0.00136927 -0.00252229 -0.00115302 0.00194578 -0.000108126 -0.00183766 0.00167887 5.26119e-05 -0.00142822 -0.0020476 -0.00207586 -0.00208649
559.0 -0.00136152 -0.00250782 -0.0011463 0.00193467 -0.000107611 -0.00182706 0.00166795 5.10313e-05 -0.00142061 -0.00203597 -0.00206382 -0.00207429
560.0 -0.00135382 -0.0024936 -0.00113978 0.00192371 -0.000107021 -0.00181669 0.0016572 4.94474e-05 -0.0014131 -0.00202449 -0.00205195 -0.00206226
561.0 -0.00134618 -0.00247961 -0.00113343 0.0019129 -0.000106378 -0.00180652 0.00164661 4.79433e-05 -0.00140559 -0.00201307 -0.00204017 -0.00205033
562.0 -0.00133865 -0.00246601 -0.00112736 0.00190233 -0.000105644 -0.00179669 0.0016363 4.65973e-05 -0.0013981 -0.00200182 -0.00202859 -0.00203862
563.0 -0.00133122 -0.00245277 -0.00112156 0.00189199 -0.00010483 -0.00178716 0.00162618 4.53893e-05 -0.00139071 -0.00199076 -0.00201722 -0.00202714
564.0 -0.0013239 -0.0024396 -0.0011157 0.00188175 -0.0001041 -0.00177765 0.00161592 4.39024e-05 -0.00138357 -0.00197987 -0.00200598 -0.00201576
565.0 -0.00131663 -0.00242618 -0.00110955 0.00187141 -0.000103539 -0.00176787 0.00160564 4.23064e-05 -0.00137642 -0.00196894 -0.00199468 -0.00200431
566.0 -0.00130944 -0.00241278 -0.00110334 0.00186111 -0.000103053 -0.00175806 0.00159544 4.07032e-05 -0.00136943 -0.00195816 -0.00198352 -0.00199298
567.0 -0.00130226 -0.00239929 -0.00109703 0.00185078 -0.000102618 -0.00174816 0.00158532 3.9312e-05 -0.00136233 -0.00194733 -0.00197232 -0.00198163
568.0 -0.00129513 -0.00238579 -0.00109066 0.00184046 -0.000102239 -0.00173822 0.00157526 3.79764e-05 -0.00135523 -0.00193651 -0.00196114 -0.00197028
569.0 -0.00128807 -0.00237235 -0.00108428 0.00183021 -0.000101894 -0.00172832 0.00156521 3.65784e-05 -0.00134822 -0.00192581 -0.00195007 -0.00195905
570.0 -0.00128104 -0.00235923 -0.00107819 0.00182013 -0.000101423 -0.00171871 0.00155519 3.51598e-05 -0.00134134 -0.00191532 -0.00193922 -0.00194805
571.0 -0.00127394 -0.00234647 -0.00107252 0.00181021 -0.000100711 -0.00170949 0.00154552 3.39814e-05 -0.00133442 -0.00190494 -0.00192854 -0.00193726
572.0 -0.00126694 -0.00233415 -0.00106721 0.00180055 -9.98656e-05 -0.00170068 0.00153593 3.26886e-05 -0.00132772 -0.00189483 -0.00191813 -0.00192674
573.0 -0.00126003 -0.00232219 -0.00106216 0.00179111 -9.89382e-05 -0.00169217 0.00152643 3.13857e-05 -0.00132114 -0.0018849 -0.00190788 -0.00191638
574.0 -0.00125328 -0.00231031 -0.00105704 0.0017818 -9.81214e-05 -0.00168367 0.00151705 3.01137e-05 -0.00131465 -0.00187507 -0.00189773 -0.00190611
575.0 -0.00124673 -0.00229839 -0.00105166 0.00177256 -9.75346e-05 -0.00167502 0.00150773 2.87394e-05 -0.00130834 -0.00186539 -0.0018877 -0.00189594
576.0 -0.00124026 -0.00228626 -0.001046 0.00176326 -9.71334e-05 -0.00166613 0.0014986 2.73875e-05 -0.00130193 -0.00185558 -0.00187756 -0.00188566
577.0 -0.00123377 -0.00227402 -0.00104025 0.0017539 -9.67622e-05 -0.00165713 0.00148938 2.60595e-05 -0.00129549 -0.00184575 -0.00186739 -0.00187534
578.0 -0.00122723 -0.00226173 -0.0010345 0.00174448 -9.63675e-05 -0.00164812 0.00148024 2.48972e-05 -0.00128901 -0.0018359 -0.00185723 -0.00186503
579.0 -0.00122065 -0.00224943 -0.00102878 0.00173504 -9.59365e-05 -0.00163911 0.00147121 2.39284e-05 -0.0012824 -0.00182603 -0.00184707 -0.00185475
580.0 -0.00121417 -0.00223713 -0.00102296 0.00172565 -9.56031e-05 -0.00163005 0.00146226 2.29386e-05 -0.00127584 -0.00181618 -0.00183692 -0.00184448
581.0 -0.00120783 -0.00222513 -0.0010173 0.00171648 -9.52664e-05 -0.00162121 0.00145342 2.17772e-05 -0.00126951 -0.00180656 -0.00182698 -0.0018344
582.0 -0.00120154 -0.00221352 -0.00101198 0.00170753 -9.4778e-05 -0.00161275 0.00144471 2.05119e-05 -0.00126334 -0.00179716 -0.00181726 -0.00182456
583.0 -0.00119518 -0.00220205 -0.00100687 0.00169861 -9.41555e-05 -0.00160446 0.00143605 1.93221e-05 -0.00125711 -0.00178776 -0.00180759 -0.00181479
584.0 -0.00118884 -0.00219078 -0.00100195 0.00168981 -9.34438e-05 -0.00159637 0.0014271 1.79737e-05 -0.0012511 -0.00177861 -0.00179814 -0.00180523
585.0 -0.00118261 -0.00217986 -0.000997251 0.00168124 -9.26791e-05 -0.00158856 0.00141829 1.66868e-05 -0.0012453 -0.00176975 -0.00178899 -0.00179595
586.0 -0.00117646 -0.00216899 -0.00099253 0.00167272 -9.1964e-05 -0.00158076 0.00140959 1.55492e-05 -0.00123948 -0.00176095 -0.00177989 -0.00178673
587.0 -0.00117036 -0.00215801 -0.000987652 0.00166419 -9.13548e-05 -0.00157283 0.00140096 1.43927e-05 -0.00123363 -0.00175208 -0.00177073 -0.00177745
588.0 -0.00116428 -0.00214697 -0.000982695 0.00165562 -9.07909e-05 -0.00156483 0.0013925 1.34593e-05 -0.00122764 -0.00174313 -0.00176152 -0.00176814
589.0 -0.00115822 -0.00213583 -0.000977609 0.00164702 -9.0304e-05 -0.00155672 0.00138412 1.26129e-05 -0.00122162 -0.00173413 -0.00175225 -0.00175875
590.0 -0.00115223 -0.00212459 -0.000972353 0.00163841 -8.994e-05 -0.00154847 0.00137587 1.16617e-05 -0.00121564 -0.00172512 -0.00174294 -0.00174931
591.0 -0.00114631 -0.00211334 -0.000967028 0.00162983 -8.96433e-05 -0.00154019 0.0013677 1.06539e-05 -0.00120972 -0.00171614 -0.00173367 -0.00173991
592.0 -0.00114051 -0.00210228 -0.000961766 0.0016214 -8.93746e-05 -0.00153202 0.00135972 9.70203e-06 -0.00120381 -0.00170722 -0.00172448 -0.00173063
593.0 -0.00113487 -0.00209157 -0.000956702 0.00161322 -8.90857e-05 -0.00152414 0.00135194 8.6602e-06 -0.00119814 -0.0016986 -0.00171558 -0.00172161
594.0 -0.00112936 -0.00208126 -0.000951899 0.00160531 -8.87282e-05 -0.00151658 0.00134415 7.42653e-06 -0.00119278 -0.00169032 -0.001707 -0.0017129
595.0 -0.00112384 -0.00207116 -0.000947322 0.0015975 -8.82594e-05 -0.00150924 0.00133648 6.26048e-06 -0.00118745 -0.00168216 -0.00169855 -0.00170433
596.0 -0.00111822 -0.00206113 -0.000942906 0.00158968 -8.7659e-05 -0.00150202 0.00132878 5.16008e-06 -0.00118208 -0.001674 -0.00169015 -0.00169581
597.0 -0.00111247 -0.00205094 -0.000938468 0.00158171 -8.70026e-05 -0.00149471 0.00132086 4.06977e-06 -0.00117658 -0.00166574 -0.00168163 -0.0016872
598.0 -0.00110667 -0.00204059 -0.000933918 0.00157363 -8.63773e-05 -0.00148725 0.00131284 3.06842e-06 -0.00117096 -0.00165735 -0.00167301 -0.00167849
599.0 -0.00110085 -0.00203017 -0.000929322 0.00156551 -8.57632e-05 -0.00147975 0.00130474 2.21672e-06 -0.00116529 -0.00164893 -0.00166436 -0.00166974
600.0 -0.00109503 -0.00201983 -0.000924804 0.00155743 -8.51109e-05 -0.00147232 0.00129637 1.23709e-06 -0.00115975 -0.00164062 -0.00165577 -0.00166105
601.0 -0.00108932 -0.00200948 -0.00092016 0.0015494 -8.45808e-05 -0.00146482 0.00128831 3.21425e-07 -0.00115424 -0.00163231 -0.00164719 -0.00165236
602.0 -0.00108375 -0.00199908 -0.000915328 0.00154142 -8.4213e-05 -0.00145721 0.00128067 -4.53287e-07 -0.00114864 -0.00162394 -0.00163859 -0.00164366
603.0 -0.00107834 -0.00198876 -0.000910425 0.00153355 -8.39563e-05 -0.00144959 0.0012732 -1.26921e-06 -0.00114318 -0.00161571 -0.00163012 -0.00163509
604.0 -0.00107302 -0.00197863 -0.000905605 0.00152582 -8.37088e-05 -0.00144212 0.00126582 -2.07902e-06 -0.00113785 -0.00160768 -0.00162183 -0.0016267
605.0 -0.00106785 -0.00196891 -0.000901057 0.00151838 -8.33967e-05 -0.00143498 0.00125869 -2.90358e-06 -0.00113277 -0.00159997 -0.00161386 -0.00161861
606.0 -0.00106283 -0.00195949 -0.000896658 0.00151116 -8.30872e-05 -0.00142807 0.00125184 -3.68267e-06 -0.00112776 -0.0015924 -0.00160605 -0.00161071
607.0 -0.00105786 -0.00195034 -0.000892477 0.0015041 -8.26928e-05 -0.00142141 0.00124518 -4.48552e-06 -0.0011228 -0.00158493 -0.00159837 -0.00160292
608.0 -0.00105292 -0.00194134 -0.000888426 0.00149713 -8.22452e-05 -0.00141488 0.00123837 -5.51325e-06 -0.00111797 -0.00157756 -0.00159074 -0.00159519
609.0 -0.00104795 -0.00193232 -0.000884368 0.00149014 -8.17932e-05 -0.00140835 0.00123131 -6.73293e-06 -0.00111321 -0.00157021 -0.00158313 -0.00158746
610.0 -0.00104286 -0.00192323 -0.000880369 0.00148304 -8.12448e-05 -0.0014018 0.00122415 -7.89733e-06 -0.00110839 -0.00156284 -0.00157549 -0.00157971
611.0 -0.00103763 -0.00191394 -0.00087631 0.00147579 -8.06603e-05 -0.00139513 0.00121683 -9.0272e-06 -0.00110345 -0.00155534 -0.00156773 -0.00157185
612.0 -0.00103228 -0.00190452 -0.000872246 0.0014684 -8.00158e-05 -0.00138839 0.00120946 -9.98418e-06 -0.00109832 -0.00154768 -0.00155985 -0.0015639
613.0 -0.00102696 -0.00189508 -0.000868127 0.00146102 -7.94139e-05 -0.0013816 0.00120207 -1.08495e-05 -0.00109319 -0.00154003 -0.00155197 -0.00155595
614.0 -0.00102169 -0.00188549 -0.000863801 0.00145359 -7.89451e-05 -0.00137465 0.00119475 -1.15706e-05 -0.00108804 -0.00153233 -0.00154406 -0.00154794
615.0 -0.0010165 -0.00187573 -0.000859226 0.00144612 -7.86382e-05 -0.00136748 0.00118759 -1.22221e-05 -0.00108285 -0.00152461 -0.00153613 -0.00153992
616.0 -0.0010114 -0.00186597 -0.000854569 0.00143869 -7.84176e-05 -0.00136027 0.00118048 -1.29293e-05 -0.00107781 -0.00151703 -0.00152832 -0.001532
617.0 -0.00100635 -0.00185628 -0.000849932 0.00143132 -7.82105e-05 -0.00135311 0.00117356 -1.34679e-05 -0.00107271 -0.00150946 -0.00152055 -0.00152415
618.0 -0.00100142 -0.00184688 -0.000845457 0.00142415 -7.79817e-05 -0.00134617 0.00116674 -1.40058e-05 -0.00106769 -0.00150201 -0.00151292 -0.00151644
619.0 -0.000996683 -0.00183775 -0.000841068 0.00141722 -7.78076e-05 -0.00133941 0.00116038 -1.44734e-05 -0.00106277 -0.00149471 -0.00150542 -0.00150885
620.0 -0.000992064 -0.00182912 -0.000837052 0.00141059 -7.75057e-05 -0.00133308 0.00115415 -1.50868e-05 -0.00105809 -0.00148769 -0.0014982 -0.00150153
621.0 -0.000987511 -0.00182097 -0.000833456 0.00140424 -7.70278e-05 -0.00132721 0.00114811 -1.57469e-05 -0.00105362 -0.00148099 -0.00149128 -0.00149452
622.0 -0.000982998 -0.00181311 -0.00083011 0.00139805 -7.64442e-05 -0.00132161 0.00114193 -1.66308e-05 -0.00104933 -0.00147448 -0.00148455 -0.00148771
623.0 -0.000978493 -0.00180524 -0.000826746 0.00139187 -7.58731e-05 -0.00131599 0.00113546 -1.77548e-05 -0.0010451 -0.00146798 -0.00147781 -0.00148088
624.0 -0.000973991 -0.00179727 -0.000823277 0.00138563 -7.5357e-05 -0.00131027 0.00112895 -1.8966e-05 -0.00104081 -0.00146139 -0.00147099 -0.00147399
625.0 -0.000969482 -0.00178917 -0.000819685 0.00137932 -7.48987e-05 -0.00130443 0.00112232 -2.02962e-05 -0.00103656 -0.0014548 -0.00146415 -0.00146704
626.0 -0.00096491 -0.00178102 -0.000816107 0.00137296 -7.44013e-05 -0.00129856 0.00111573 -2.15309e-05 -0.00103232 -0.00144823 -0.00145732 -0.00146011
627.0 -0.000960213 -0.00177262 -0.000812402 0.00136641 -7.39054e-05 -0.00129251 0.00110922 -2.23625e-05 -0.00102789 -0.00144151 -0.00145036 -0.00145306
628.0 -0.000955454 -0.00176399 -0.000808532 0.00135972 -7.34611e-05 -0.00128626 0.00110264 -2.30888e-05 -0.00102341 -0.00143474 -0.00144335 -0.00144595
629.0 -0.000950711 -0.00175515 -0.000804441 0.00135293 -7.31354e-05 -0.0012798 0.00109625 -2.3655e-05 -0.00101877 -0.00142781 -0.00143623 -0.00143874
630.0 -0.000946009 -0.00174603 -0.000800023 0.00134602 -7.29929e-05 -0.00127303 0.00109009 -2.40792e-05 -0.00101397 -0.00142071 -0.00142895 -0.00143137
631.0 -0.000941388 -0.00173685 -0.00079546 0.00133912 -7.29641e-05 -0.00126615 0.00108399 -2.45209e-05 -0.00100918 -0.00141359 -0.00142164 -0.00142397
632.0 -0.000936778 -0.00172784 -0.000791063 0.00133231 -7.28572e-05 -0.00125945 0.00107789 -2.49096e-05 -0.00100441 -0.00140653 -0.00141441 -0.00141665
633.0 -0.000932197 -0.00171919 -0.000786992 0.00132569 -7.26027e-05 -0.00125309 0.00107177 -2.52813e-05 -0.000999714 -0.00139964 -0.00140736 -0.00140952
634.0 -0.000927714 -0.0017109 -0.000783182 0.00131931 -7.2266e-05 -0.00124704 0.00106565 -2.57337e-05 -0.000995161 -0.00139294 -0.0014005 -0.0014026
635.0 -0.000923313 -0.00170298 -0.000779664 0.00131314 -7.18241e-05 -0.00124132 0.00105976 -2.61456e-05 -0.000990697 -0.00138642 -0.00139385 -0.0013959
636.0 -0.000918945 -0.00169533 -0.000776387 0.00130714 -7.1279e-05 -0.00123586 0.00105396 -2.65488e-05 -0.000986251 -0.00138 -0.00138731 -0.00138934
637.0 -0.000914712 -0.00168797 -0.000773253 0.00130134 -7.07294e-05 -0.00123061 0.00104804 -2.71877e-05 -0.000982051 -0.00137382 -0.00138099 -0.00138297
638.0 -0.00091062 -0.00168087 -0.000770252 0.00129575 -7.01839e-05 -0.00122556 0.00104228 -2.79936e-05 -0.000978116 -0.0013679 -0.0013749 -0.00137683
639.0 -0.00090663 -0.00167393 -0.000767296 0.00129028 -6.96672e-05 -0.00122061 0.00103629 -2.92033e-05 -0.000974498 -0.00136223 -0.00136899 -0.00137083
640.0 -0.000902679 -0.00166688 -0.000764204 0.00128478 -6.92372e-05 -0.00121554 0.00103024 -3.05747e-05 -0.000971001 -0.00135662 -0.00136309 -0.00136481
641.0 -0.000898762 -0.00165974 -0.000760979 0.00127925 -6.88912e-05 -0.00121036 0.00102424 -3.18817e-05 -0.00096748 -0.00135096 -0.00135715 -0.00135875
642.0 -0.000894778 -0.00165228 -0.000757498 0.00127353 -6.86402e-05 -0.00120489 0.00101836 -3.28995e-05 -0.000963717 -0.00134506 -0.00135098 -0.00135246
643.0 -0.000890691 -0.00164452 -0.000753834 0.00126761 -6.84282e-05 -0.00119918 0.00101264 -3.36554e-05 -0.000959762 -0.00133896 -0.00134464 -0.00134599
644.0 -0.000886543 -0.00163646 -0.000749917 0.0012615 -6.83128e-05 -0.00119319 0.00100703 -3.42723e-05 -0.000955641 -0.00133268 -0.00133813 -0.00133938
645.0 -0.000882363 -0.00162821 -0.00074585 0.00125529 -6.82566e-05 -0.00118703 0.00100158 -3.47302e-05 -0.00095138 -0.00132631 -0.00133157 -0.00133272
646.0 -0.00087812 -0.00162002 -0.000741902 0.00124907 -6.81093e-05 -0.00118096 0.000996195 -3.51217e-05 -0.000947086 -0.00131995 -0.00132505 -0.00132612
647.0 -0.000873841 -0.001612 -0.000738163 0.00124292 -6.78389e-05 -0.00117508 0.000990795 -3.55205e-05 -0.0009428 -0.00131364 -0.00131859 -0.0013196
648.0 -0.000869555 -0.00160425 -0.000734693 0.0012369 -6.74309e-05 -0.00116947 0.000985422 -3.5837e-05 -0.00093849 -0.00130738 -0.00131222 -0.00131319
649.0 -0.000865326 -0.00159667 -0.00073134 0.001231 -6.69931e-05 -0.001164 0.000980201 -3.60282e-05 -0.000934143 -0.00130116 -0.0013059 -0.00130686
650.0 -0.000861201 -0.00158933 -0.000728133 0.00122527 -6.65341e-05 -0.00115873 0.000975022 -3.6204e-05 -0.000929907 -0.0012951 -0.00129976 -0.0013007
651.0 -0.000857145 -0.0015822 -0.000725056 0.00121967 -6.60442e-05 -0.00115363 0.000969648 -3.65129e-05 -0.000925814 -0.0012892 -0.00129376 -0.00129467
652.0 -0.000853173 -0.00157531 -0.000722133 0.00121424 -6.55197e-05 -0.00114872 0.000964174 -3.69335e-05 -0.000921887 -0.00128348 -0.00128793 -0.0012888
653.0 -0.00084922 -0.00156855 -0.000719333 0.00120889 -6.49437e-05 -0.00114394 0.000958505 -3.75315e-05 -0.00091813 -0.00127793 -0.00128224 -0.00128306
654.0 -0.000845348 -0.00156179 -0.000716442 0.00120357 -6.4453e-05 -0.00113912 0.000952802 -3.829e-05 -0.000914504 -0.00127246 -0.00127658 -0.00127734
655.0 -0.00084163 -0.00155495 -0.000713316 0.00119829 -6.41569e-05 -0.00113413 0.00094722 -3.92113e-05 -0.000910989 -0.001267 -0.00127091 -0.00127157
656.0 -0.000838008 -0.00154798 -0.000709972 0.00119299 -6.40179e-05 -0.00112898 0.000941717 -4.02021e-05 -0.000907454 -0.00126147 -0.00126516 -0.0012657
657.0 -0.00083442 -0.00154095 -0.00070653 0.00118769 -6.39451e-05 -0.00112374 0.000936207 -4.12263e-05 -0.00090395 -0.00125594 -0.00125938 -0.0012598
658.0 -0.000830902 -0.00153405 -0.000703152 0.00118248 -6.38751e-05 -0.0011186 0.000930742 -4.21873e-05 -0.000900509 -0.00125051 -0.00125371 -0.00125401
659.0 -0.000827455 -0.00152718 -0.000699727 0.00117732 -6.38643e-05 -0.00111345 0.000925514 -4.30217e-05 -0.000897046 -0.00124511 -0.00124809 -0.00124828
660.0 -0.000823991 -0.00152033 -0.000696339 0.00117216 -6.38258e-05 -0.00110833 0.000920527 -4.36841e-05 -0.000893556 -0.00123975 -0.00124251 -0.0012426
661.0 -0.000820377 -0.00151339 -0.000693016 0.00116689 -6.36804e-05 -0.00110321 0.000915462 -4.43127e-05 -0.000890002 -0.00123432 -0.00123688 -0.00123689
662.0 -0.000816577 -0.00150638 -0.000689799 0.00116148 -6.33888e-05 -0.00109809 0.000910423 -4.48973e-05 -0.00088627 -0.00122874 -0.00123114 -0.0012311
663.0 -0.000812677 -0.00149937 -0.000686691 0.00115602 -6.2993e-05 -0.00109303 0.000905614 -4.53399e-05 -0.000882469 -0.00122314 -0.00122541 -0.00122533
664.0 -0.00080878 -0.00149249 -0.000683709 0.00115063 -6.25355e-05 -0.0010881 0.000900838 -4.57844e-05 -0.000878717 -0.00121762 -0.00121976 -0.00121964
665.0 -0.000804924 -0.00148577 -0.000680851 0.00114535 -6.2037e-05 -0.00108331 0.000896205 -4.61431e-05 -0.000874995 -0.00121218 -0.00121421 -0.00121405
666.0 -0.000801134 -0.00147915 -0.000678021 0.00114014 -6.15568e-05 -0.00107859 0.000891699 -4.63216e-05 -0.000871234 -0.00120678 -0.00120871 -0.00120852
667.0 -0.000797452 -0.00147268 -0.000675225 0.00113507 -6.11137e-05 -0.00107395 0.000887317 -4.63824e-05 -0.000867479 -0.00120143 -0.00120329 -0.00120308
668.0 -0.000793838 -0.00146632 -0.000672485 0.00113008 -6.06765e-05 -0.0010694 0.000882907 -4.65045e-05 -0.000863826 -0.0011962 -0.00119797 -0.00119773
669.0 -0.000790276 -0.00146003 -0.000669758 0.00112515 -6.02593e-05 -0.0010649 0.000878379 -4.67974e-05 -0.000860347 -0.0011911 -0.00119274 -0.00119245
670.0 -0.000786755 -0.00145373 -0.000666976 0.00112024 -5.98894e-05 -0.00106035 0.000873632 -4.73123e-05 -0.000856981 -0.00118604 -0.00118753 -0.00118716
671.0 -0.000783271 -0.00144734 -0.000664072 0.00111531 -5.95996e-05 -0.00105571 0.000868697 -4.79229e-05 -0.000853626 -0.00118094 -0.00118226 -0.00118181
672.0 -0.000779822 -0.00144093 -0.000661109 0.00111038 -5.93565e-05 -0.00105102 0.000863623 -4.86e-05 -0.000850303 -0.00117586 -0.001177 -0.00117647
673.0 -0.000776437 -0.00143452 -0.000658083 0.00110548 -5.91769e-05 -0.0010463 0.000858483 -4.93153e-05 -0.000846986 -0.0011708 -0.00117177 -0.00117115
674.0 -0.000773089 -0.00142822 -0.000655129 0.00110065 -5.898e-05 -0.00104167 0.0008533 -5.00612e-05 -0.000843725 -0.00116581 -0.0011666 -0.0011659
675.0 -0.000769791 -0.00142197 -0.000652178 0.00109588 -5.88063e-05 -0.00103707 0.000848142 -5.07583e-05 -0.000840461 -0.00116083 -0.00116144 -0.00116067
676.0 -0.00076651 -0.00141565 -0.000649145 0.00109108 -5.86824e-05 -0.0010324 0.000843081 -5.14247e-05 -0.000837125 -0.00115577 -0.00115623 -0.00115538
677.0 -0.000763219 -0.00140922 -0.000646001 0.00108622 -5.86088e-05 -0.00102761 0.000838043 -5.21273e-05 -0.000833673 -0.00115057 -0.00115088 -0.00114998
678.0 -0.000759955 -0.0014027 -0.000642748 0.00108133 -5.86033e-05 -0.00102273 0.000833063 -5.28971e-05 -0.00083029 -0.00114541 -0.00114555 -0.00114458
679.0 -0.000756676 -0.00139616 -0.00063948 0.00107642 -5.85979e-05 -0.00101782 0.0008282 -5.3537e-05 -0.0008269 -0.00114027 -0.00114025 -0.00113921
680.0 -0.000753332 -0.00138969 -0.000636359 0.00107151 -5.84864e-05 -0.00101303 0.000823309 -5.42034e-05 -0.000823571 -0.00113519 -0.001135 -0.0011339
681.0 -0.000749984 -0.00138349 -0.000633503 0.00106674 -5.82402e-05 -0.0010085 0.000818542 -5.491e-05 -0.000820376 -0.0011303 -0.00112994 -0.00112877
682.0 -0.000746622 -0.00137752 -0.000630893 0.00106207 -5.78646e-05 -0.0010042 0.000814264 -5.54012e-05 -0.000817189 -0.00112553 -0.00112503 -0.0011238
683.0 -0.000743263 -0.0013717 -0.000628436 0.00105748 -5.74131e-05 -0.00100007 0.000810356 -5.56879e-05 -0.000814009 -0.00112086 -0.00112024 -0.00111897
684.0 -0.000739928 -0.00136602 -0.000626089 0.00105297 -5.69192e-05 -0.000996053 0.000806534 -5.59273e-05 -0.000810884 -0.00111628 -0.00111554 -0.00111423
685.0 -0.000736692 -0.00136046 -0.000623765 0.00104857 -5.64638e-05 -0.000992111 0.000802751 -5.61911e-05 -0.000807856 -0.00111181 -0.00111094 -0.00110956
686.0 -0.000733541 -0.00135496 -0.000621423 0.00104425 -5.60591e-05 -0.000988194 0.000799062 -5.63792e-05 -0.000804818 -0.00110736 -0.00110637 -0.00110494
687.0 -0.000730436 -0.00134942 -0.000618981 0.00103993 -5.57272e-05 -0.000984199 0.000795394 -5.65629e-05 -0.000801747 -0.00110286 -0.00110176 -0.00110028
688.0 -0.000727374 -0.00134371 -0.000616338 0.00103554 -5.5518e-05 -0.000980025 0.000791789 -5.67349e-05 -0.00079859 -0.00109823 -0.00109702 -0.00109549
689.0 -0.000724277 -0.00133799 -0.000613714 0.00103113 -5.52813e-05 -0.000975852 0.000788065 -5.68984e-05 -0.000795373 -0.00109356 -0.00109226 -0.00109069
690.0 -0.000721148 -0.00133227 -0.000611125 0.00102671 -5.50113e-05 -0.000971699 0.000784102 -5.71396e-05 -0.000792188 -0.00108891 -0.00108752 -0.0010859
691.0 -0.000718009 -0.00132657 -0.000608559 0.00102229 -5.47254e-05 -0.000967563 0.000779849 -5.75329e-05 -0.000789053 -0.00108429 -0.00108279 -0.00108113
692.0 -0.000714859 -0.00132084 -0.000605979 0.00101785 -5.44397e-05 -0.000963409 0.000775537 -5.79601e-05 -0.000785907 -0.00107964 -0.00107803 -0.00107635
693.0 -0.000711713 -0.00131513 -0.000603422 0.00101342 -5.41456e-05 -0.000959278 0.000771132 -5.83874e-05 -0.000782744 -0.00107499 -0.00107328 -0.00107156
694.0 -0.000708582 -0.00130947 -0.000600888 0.00100903 -5.38467e-05 -0.000955179 0.00076655 -5.88758e-05 -0.000779662 -0.0010704 -0.00106855 -0.00106679
695.0 -0.000705462 -0.00130373 -0.00059827 0.0010046 -5.35959e-05 -0.000951002 0.000761795 -5.95186e-05 -0.000776629 -0.0010658 -0.0010638 -0.00106198
696.0 -0.000702372 -0.00129801 -0.000595638 0.00100019 -5.33671e-05 -0.000946823 0.000756836 -6.03444e-05 -0.000773705 -0.00106128 -0.00105911 -0.00105722
697.0 -0.000699316 -0.00129222 -0.000592899 0.000995766 -5.32083e-05 -0.000942557 0.000751827 -6.12411e-05 -0.00077084 -0.00105681 -0.00105445 -0.00105248
698.0 -0.000696291 -0.00128636 -0.000590071 0.000991327 -5.31101e-05 -0.000938217 0.000746837 -6.21466e-05 -0.000767964 -0.00105232 -0.00104978 -0.00104773
699.0 -0.000693327 -0.00128053 -0.0005872 0.000986927 -5.30634e-05 -0.000933863 0.000742034 -6.29991e-05 -0.000765094 -0.00104782 -0.00104511 -0.00104298
700.0 -0.000690482 -0.00127488 -0.000584397 0.000982681 -5.30423e-05 -0.000929638 0.000737459 -6.3741e-05 -0.000762303 -0.00104345 -0.00104055 -0.00103833
701.0 -0.000687713 -0.00126942 -0.000581705 0.000978566 -5.30043e-05 -0.000925562 0.000733108 -6.44794e-05 -0.000759626 -0.00103922 -0.00103613 -0.00103382
702.0 -0.000684982 -0.00126404 -0.000579054 0.000974509 -5.2964e-05 -0.000921545 0.000729034 -6.51457e-05 -0.000757003 -0.0010351 -0.00103182 -0.00102941
703.0 -0.000682232 -0.00125865 -0.000576415 0.000970439 -5.29086e-05 -0.000917531 0.000725371 -6.55008e-05 -0.000754222 -0.0010309 -0.00102751 -0.00102503
704.0 -0.000679418 -0.00125323 -0.000573814 0.000966325 -5.2802e-05 -0.000913523 0.000722042 -6.55964e-05 -0.000751232 -0.00102657 -0.00102311 -0.00102059
705.0 -0.000676481 -0.00124781 -0.000571327 0.000962145 -5.25772e-05 -0.000909568 0.000718827 -6.55013e-05 -0.000748105 -0.00102216 -0.00101865 -0.00101611
706.0 -0.000673509 -0.00124251 -0.000568996 0.000958007 -5.22565e-05 -0.000905751 0.000715667 -6.53278e-05 -0.000744968 -0.00101779 -0.00101425 -0.00101169
707.0 -0.000670667 -0.00123749 -0.000566819 0.000954076 -5.19242e-05 -0.000902152 0.000712601 -6.52611e-05 -0.000742023 -0.00101363 -0.00101003 -0.00100746
708.0 -0.000667888 -0.0012327 -0.000564815 0.000950295 -5.15363e-05 -0.000898759 0.000709557 -6.53111e-05 -0.000739247 -0.00100964 -0.00100597 -0.00100338
709.0 -0.000665106 -0.0012281 -0.000562997 0.000946605 -5.10547e-05 -0.00089555 0.000706443 -6.54402e-05 -0.000736538 -0.00100575 -0.001002 -0.000999398
710.0 -0.000662271 -0.00122345 -0.000561182 0.000942863 -5.05444e-05 -0.000892318 0.000703156 -6.55938e-05 -0.000733726 -0.00100173 -0.000997924 -0.000995323
711.0 -0.000659477 -0.00121869 -0.000559212 0.000939082 -5.01325e-05 -0.00088895 0.000699742 -6.58433e-05 -0.000730951 -0.000997696 -0.000993818 -0.0009912
712.0 -0.000656718 -0.00121382 -0.000557099 0.000935268 -4.98099e-05 -0.000885458 0.000696252 -6.61516e-05 -0.000728199 -0.000993659 -0.00098969 -0.000987044
713.0 -0.000653919 -0.00120883 -0.00055491 0.000931374 -4.95042e-05 -0.00088187 0.000692564 -6.65916e-05 -0.000725464 -0.000989592 -0.000985511 -0.000982827
714.0 -0.000651089 -0.00120375 -0.000552665 0.000927421 -4.92119e-05 -0.000878209 0.000688661 -6.70809e-05 -0.000722743 -0.000985509 -0.000981296 -0.000978559
715.0 -0.000648229 -0.00119868 -0.00055045 0.000923453 -4.88894e-05 -0.000874564 0.000684783 -6.74205e-05 -0.000719986 -0.00098143 -0.000977097 -0.000974316
716.0 -0.000645353 -0.00119352 -0.000548167 0.000919436 -4.85931e-05 -0.000870843 0.000680835 -6.77735e-05 -0.000717206 -0.000977319 -0.000972866 -0.000970037
717.0 -0.000642555 -0.0011883 -0.000545746 0.000915428 -4.84045e-05 -0.000867023 0.000676864 -6.82493e-05 -0.000714502 -0.000973238 -0.000968639 -0.000965749
718.0 -0.000639865 -0.00118302 -0.000543152 0.000911442 -4.83566e-05 -0.000863085 0.000672821 -6.89388e-05 -0.000711952 -0.000969239 -0.000964464 -0.000961487
719.0 -0.000637266 -0.00117777 -0.0005405 0.000907515 -4.83829e-05 -0.000859133 0.000668692 -6.97839e-05 -0.000709538 -0.000965347 -0.000960376 -0.000957303
720.0 -0.000634745 -0.00117263 -0.000537883 0.000903687 -4.84311e-05 -0.000855256 0.000664567 -7.07113e-05 -0.000707238 -0.000961569 -0.000956399 -0.000953222
721.0 -0.00063227 -0.00116763 -0.000535359 0.00089995 -4.84555e-05 -0.000851495 0.000660323 -7.16983e-05 -0.000705047 -0.000957917 -0.000952535 -0.000949248
722.0 -0.00062983 -0.00116272 -0.000532893 0.000896276 -4.84686e-05 -0.000847808 0.000656225 -7.25042e-05 -0.000702797 -0.00095427 -0.000948703 -0.000945323
723.0 -0.000627404 -0.00115786 -0.000530452 0.00089263 -4.8476e-05 -0.000844154 0.000652323 -7.30362e-05 -0.000700403 -0.000950554 -0.000944848 -0.000941396
724.0 -0.000625002 -0.00115304 -0.000528034 0.000889019 -4.84838e-05 -0.000840535 0.000648456 -7.35591e-05 -0.000697973 -0.000946807 -0.000940975 -0.000937457
725.0 -0.000622604 -0.00114823 -0.000525627 0.000885417 -4.84887e-05 -0.000836928 0.000644799 -7.39265e-05 -0.000695418 -0.000942991 -0.000937071 -0.000933504
726.0 -0.000620176 -0.00114354 -0.000523364 0.000881858 -4.84061e-05 -0.000833451 0.000641369 -7.4158e-05 -0.000692812 -0.00093919 -0.000933202 -0.000929604
727.0 -0.00061767 -0.00113893 -0.000521262 0.000878302 -4.8204e-05 -0.000830098 0.000637989 -7.4391e-05 -0.000690207 -0.000935403 -0.000929352 -0.000925731
728.0 -0.000615081 -0.00113429 -0.000519205 0.000874684 -4.79377e-05 -0.000826746 0.000634671 -7.4522e-05 -0.000687507 -0.000931531 -0.000925429 -0.000921799
729.0 -0.000612424 -0.00112959 -0.000517163 0.000871005 -4.76307e-05 -0.000823375 0.000631516 -7.44803e-05 -0.000684641 -0.000927526 -0.00092141 -0.000917793
730.0 -0.000609758 -0.00112495 -0.000515195 0.000867355 -4.72815e-05 -0.000820074 0.000628518 -7.43636e-05 -0.000681801 -0.000923588 -0.000917456 -0.000913854
731.0 -0.000607113 -0.00112046 -0.000513351 0.000863789 -4.68811e-05 -0.000816907 0.000625632 -7.42504e-05 -0.000679049 -0.000919771 -0.000913617 -0.000910019
732.0 -0.000604509 -0.00111617 -0.000511665 0.000860342 -4.64222e-05 -0.00081392 0.000622882 -7.41197e-05 -0.000676379 -0.000916087 -0.000909911 -0.00090632
733.0 -0.000601925 -0.00111196 -0.000510039 0.000856944 -4.59428e-05 -0.000811001 0.00062002 -7.41074e-05 -0.000673789 -0.000912473 -0.000906262 -0.000902668
734.0 -0.000599326 -0.00110777 -0.000508448 0.00085355 -4.5439e-05 -0.000808112 0.000617024 -7.42159e-05 -0.000671261 -0.000908905 -0.000902641 -0.00089904
735.0 -0.000596774 -0.00110356 -0.000506786 0.000850168 -4.4994e-05 -0.000805174 0.000613839 -7.45008e-05 -0.000668824 -0.000905378 -0.000899028 -0.000895404
736.0 -0.000594331 -0.00109938 -0.000505044 0.000846853 -4.46437e-05 -0.00080221 0.000610649 -7.48891e-05 -0.00066652 -0.000901944 -0.000895481 -0.000891813
737.0 -0.000591943 -0.00109522 -0.000503275 0.000843581 -4.43338e-05 -0.000799247 0.000607466 -7.53021e-05 -0.00066432 -0.000898592 -0.000891981 -0.000888251
738.0 -0.000589589 -0.00109094 -0.000501354 0.000840265 -4.41175e-05 -0.000796148 0.000604391 -7.55844e-05 -0.000662031 -0.000895155 -0.000888415 -0.000884626
739.0 -0.00058727 -0.00108657 -0.000499296 0.000836918 -4.39868e-05 -0.000792932 0.0006013 -7.59013e-05 -0.000659732 -0.000891686 -0.000884824 -0.000880973
740.0 -0.000585007 -0.00108205 -0.000497047 0.00083353 -4.39801e-05 -0.00078955 0.000598276 -7.62218e-05 -0.000657413 -0.000888174 -0.00088119 -0.000877278
741.0 -0.000582745 -0.00107742 -0.000494671 0.000830081 -4.4037e-05 -0.000786044 0.000595218 -7.65986e-05 -0.000655156 -0.0008847 -0.000877581 -0.000873599
742.0 -0.000580543 -0.00107266 -0.000492112 0.000826599 -4.42155e-05 -0.000782384 0.000592153 -7.71132e-05 -0.000653007 -0.000881274 -0.000873997 -0.000869926
743.0 -0.000578398 -0.00106791 -0.000489507 0.000823152 -4.44458e-05 -0.000778706 0.000589205 -7.76559e-05 -0.00065086 -0.000877837 -0.000870408 -0.000866253
744.0 -0.000576242 -0.00106325 -0.000487004 0.000819744 -4.4619e-05 -0.000775125 0.000586124 -7.82924e-05 -0.000648751 -0.000874429 -0.000866845 -0.000862606
745.0 -0.000574095 -0.00105866 -0.000484563 0.000816376 -4.4766e-05 -0.00077161 0.000582927 -7.90084e-05 -0.000646685 -0.000871055 -0.000863309 -0.000858983
746.0 -0.000571949 -0.0010542 -0.000482256 0.000813076 -4.48464e-05 -0.00076823 0.00057972 -7.96455e-05 -0.000644592 -0.000867716 -0.000859833 -0.000855435
747.0 -0.000569763 -0.0010499 -0.000480139 0.000809832 -4.4812e-05 -0.00076502 0.000576452 -8.0239e-05 -0.000642479 -0.000864409 -0.000856401 -0.000851944
748.0 -0.00056752 -0.00104576 -0.000478244 0.000806642 -4.46383e-05 -0.000762004 0.000573198 -8.06486e-05 -0.000640304 -0.00086112 -0.000853013 -0.00084852
749.0 -0.000565206 -0.00104171 -0.000476502 0.000803457 -4.43523e-05 -0.000759105 0.000569783 -8.10577e-05 -0.000638092 -0.000857809 -0.000849616 -0.0008451
750.0 -0.000562857 -0.00103765 -0.000474791 0.000800252 -4.4033e-05 -0.00075622 0.000566209 -8.15335e-05 -0.000635852 -0.000854455 -0.00084618 -0.000841647
751.0 -0.000560531 -0.00103362 -0.000473093 0.000797078 -4.37193e-05 -0.000753358 0.000562667 -8.2004e-05 -0.000633649 -0.000851145 -0.000842785 -0.00083823
752.0 -0.000558236 -0.00102963 -0.000471391 0.000793931 -4.34224e-05 -0.000750509 0.000559187 -8.24146e-05 -0.000631459 -0.000847882 -0.000839438 -0.000834859
753.0 -0.000555948 -0.0010257 -0.000469751 0.000790824 -4.30985e-05 -0.000747725 0.000555792 -8.27311e-05 -0.000629263 -0.00084466 -0.000836144 -0.000831544
754.0 -0.00055367 -0.0010218 -0.000468129 0.000787734 -4.27704e-05 -0.000744964 0.00055249 -8.28884e-05 -0.000627005 -0.000841432 -0.000832865 -0.000828252
755.0 -0.000551449 -0.00101791 -0.000466458 0.000784678 -4.24954e-05 -0.000742182 0.000549527 -8.28122e-05 -0.000624638 -0.000838158 -0.000829575 -0.000824963
756.0 -0.000549248 -0.00101408 -0.000464832 0.000781664 -4.22083e-05 -0.000739456 0.000546585 -8.28148e-05 -0.000622349 -0.00083495 -0.000826336 -0.000821716
757.0 -0.000546983 -0.00101032 -0.000463341 0.000778654 -4.18208e-05 -0.000736833 0.000543601 -8.28974e-05 -0.000620116 -0.000831797 -0.000823133 -0.000818498
758.0 -0.00054464 -0.00100663 -0.000461986 0.000775633 -4.13269e-05 -0.000734306 0.00054067 -8.29402e-05 -0.000617858 -0.00082865 -0.000819951 -0.00081531
759.0 -0.000542339 -0.001003 -0.000460662 0.00077267 -4.08387e-05 -0.000731832 0.000537746 -8.30379e-05 -0.000615649 -0.00082556 -0.000816817 -0.000812167
760.0 -0.000540119 -0.000999435 -0.000459316 0.000769777 -4.04016e-05 -0.000729375 0.000534937 -8.3168e-05 -0.000613507 -0.000822535 -0.000813743 -0.000809079
761.0 -0.000537953 -0.000995788 -0.000457836 0.00076687 -4.00586e-05 -0.000726812 0.000532282 -8.32775e-05 -0.000611338 -0.000819468 -0.000810625 -0.000805946
762.0 -0.000535848 -0.000992059 -0.000456211 0.000763954 -3.98184e-05 -0.000724135 0.000529699 -8.33544e-05 -0.000609164 -0.000816376 -0.000807477 -0.000802775
763.0 -0.000533805 -0.000988286 -0.000454481 0.000761046 -3.9662e-05 -0.000721384 0.000527171 -8.33799e-05 -0.000607007 -0.000813285 -0.00080432 -0.000799587
764.0 -0.000531803 -0.000984393 -0.00045259 0.000758098 -3.96062e-05 -0.000718492 0.000524723 -8.33859e-05 -0.000604836 -0.000810155 -0.000801119 -0.000796349
765.0 -0.000529879 -0.000980394 -0.000450514 0.000755137 -3.96824e-05 -0.000715454 0.00052236 -8.34556e-05 -0.000602717 -0.000807024 -0.000797901 -0.000793078
766.0 -0.000528004 -0.000976222 -0.000448218 0.000752113 -3.98928e-05 -0.00071222 0.00052013 -8.35207e-05 -0.00060054 -0.000803795 -0.000794588 -0.000789713
767.0 -0.000526111 -0.000971772 -0.000445661 0.000748941 -4.02251e-05 -0.000708716 0.000517812 -8.36697e-05 -0.000598312 -0.00080043 -0.000791129 -0.000786193
768.0 -0.00052423 -0.000967147 -0.000442917 0.000745689 -4.06567e-05 -0.000705032 0.00051526 -8.40626e-05 -0.00059618 -0.000797053 -0.000787618 -0.000782601
769.0 -0.000522382 -0.000962766 -0.000440384 0.000742574 -4.0999e-05 -0.000701575 0.000512645 -8.45718e-05 -0.000594206 -0.000793856 -0.000784276 -0.000779174
770.0 -0.000520523 -0.000958704 -0.000438181 0.000739614 -4.11713e-05 -0.000698442 0.00051016 -8.50907e-05 -0.00059237 -0.000790863 -0.000781131 -0.000775953
771.0 -0.000518657 -0.000954859 -0.000436202 0.000736758 -4.12275e-05 -0.00069553 0.000507715 -8.56259e-05 -0.000590612 -0.000787992 -0.000778111 -0.000772867
772.0 -0.000516754 -0.000951076 -0.000434323 0.000733915 -4.12156e-05 -0.000692699 0.000505244 -8.61797e-05 -0.000588798 -0.000785083 -0.000775077 -0.000769784
773.0 -0.00051482 -0.00094734 -0.00043252 0.00073108 -4.11503e-05 -0.00068993 0.000502679 -8.67768e-05 -0.000586956 -0.000782161 -0.000772043 -0.000766713
774.0 -0.000512846 -0.000943742 -0.000430897 0.000728294 -4.09744e-05 -0.00068732 0.000500045 -8.74088e-05 -0.00058518 -0.000779334 -0.000769101 -0.00076373
775.0 -0.000510848 -0.000940269 -0.000429422 0.000725559 -4.0713e-05 -0.000684846 0.000497347 -8.80693e-05 -0.000583457 -0.000776585 -0.000766236 -0.000760823
776.0 -0.000508845 -0.000936883 -0.000428038 0.000722864 -4.04034e-05 -0.000682461 0.000494646 -8.86929e-05 -0.000581765 -0.000773892 -0.000763424 -0.000757969
777.0 -0.000506814 -0.000933609 -0.000426795 0.000720211 -4.00094e-05 -0.000680202 0.000492011 -8.90573e-05 -0.000579991 -0.000771218 -0.000760661 -0.000755181
778.0 -0.000504754 -0.000930347 -0.000425593 0.00071755 -3.95804e-05 -0.00067797 0.000489218 -8.93899e-05 -0.000578187 -0.000768534 -0.000757902 -0.000752404
779.0 -0.0005027 -0.000927003 -0.000424303 0.000714851 -3.91985e-05 -0.000675653 0.000486379 -8.97202e-05 -0.00057637 -0.000765827 -0.000755117 -0.000749593
780.0 -0.000500683 -0.000923621 -0.000422938 0.000712152 -3.88721e-05 -0.00067328 0.000483684 -8.99478e-05 -0.000574528 -0.00076312 -0.000752337 -0.000746784
781.0 -0.00049871 -0.000920244 -0.000421534 0.000709477 -3.85881e-05 -0.000670889 0.000481022 -9.01121e-05 -0.000572669 -0.000760422 -0.000749584 -0.000744004
782.0 -0.000496745 -0.00091694 -0.000420196 0.000706842 -3.82744e-05 -0.000668568 0.000478284 -9.02262e-05 -0.0005708 -0.000757759 -0.000746875 -0.000741275
783.0 -0.00049479 -0.000913619 -0.000418829 0.000704205 -3.79806e-05 -0.000666224 0.00047547 -9.02565e-05 -0.000568848 -0.000755044 -0.000744131 -0.000738524
784.0 -0.000492884 -0.000910372 -0.000417488 0.000701628 -3.76978e-05 -0.00066393 0.000472661 -9.02528e-05 -0.000566913 -0.000752363 -0.000741426 -0.000735815
785.0 -0.000490982 -0.000907164 -0.000416182 0.000699073 -3.73996e-05 -0.000661673 0.000469854 -9.02152e-05 -0.000564952 -0.000749689 -0.00073874 -0.000733128
786.0 -0.000489087 -0.000903993 -0.000414906 0.00069654 -3.70902e-05 -0.00065945 0.000467115 -9.01584e-05 -0.000562969 -0.000746999 -0.00073605 -0.000730444
787.0 -0.00048719 -0.000900873 -0.000413684 0.000694032 -3.67529e-05 -0.000657279 0.000464416 -9.00717e-05 -0.000560949 -0.000744294 -0.00073336 -0.00072777
788.0 -0.000485308 -0.000897758 -0.00041245 0.000691533 -3.64293e-05 -0.000655104 0.000461768 -9.0015e-05 -0.000558966 -0.000741608 -0.00073068 -0.000725098
789.0 -0.000483435 -0.000894571 -0.000411136 0.000689003 -3.61493e-05 -0.000652853 0.000459126 -9.00474e-05 -0.000557027 -0.000738924 -0.000727983 -0.000722401
790.0 -0.000481602 -0.000891296 -0.000409694 0.000686449 -3.59542e-05 -0.000650495 0.000456474 -9.01721e-05 -0.000555154 -0.000736246 -0.000725265 -0.000719663
791.0 -0.000479807 -0.000887964 -0.000408157 0.000683886 -3.58253e-05 -0.00064806 0.0004538 -9.03203e-05 -0.000553322 -0.000733573 -0.000722526 -0.00071689
792.0 -0.00047804 -0.000884511 -0.000406472 0.000681275 -3.5784e-05 -0.000645491 0.000451204 -9.04254e-05 -0.000551436 -0.000730802 -0.000719683 -0.000714006
793.0 -0.000476313 -0.000880976 -0.000404662 0.000678644 -3.58255e-05 -0.000642819 0.000448691 -9.06033e-05 -0.000549575 -0.000728002 -0.000716785 -0.000711057
794.0 -0.000474619 -0.000877397 -0.000402778 0.000676008 -3.59204e-05 -0.000640088 0.00044631 -9.07882e-05 -0.000547702 -0.000725179 -0.000713866 -0.000708085
795.0 -0.000472932 -0.000873817 -0.000400884 0.000673374 -3.60239e-05 -0.00063735 0.000444019 -9.09842e-05 -0.000545837 -0.000722367 -0.000710956 -0.000705126
796.0 -0.000471241 -0.000870189 -0.000398948 0.000670715 -3.61465e-05 -0.000634569 0.000441711 -9.12846e-05 -0.000544042 -0.000719583 -0.000708054 -0.00070217
797.0 -0.00046955 -0.000866359 -0.000396809 0.000667954 -3.63704e-05 -0.000631584 0.000439398 -9.16704e-05 -0.000542251 -0.000716731 -0.000705071 -0.000699128
798.0 -0.000467857 -0.000862535 -0.000394678 0.000665196 -3.65892e-05 -0.000628607 0.000437167 -9.2053e-05 -0.000540414 -0.000713827 -0.00070205 -0.000696058
799.0 -0.000466188 -0.000858823 -0.000392635 0.000662506 -3.67768e-05 -0.000625729 0.000434981 -9.24844e-05 -0.000538667 -0.00071102 -0.000699115 -0.000693067
800.0 -0.000464548 -0.000855236 -0.000390688 0.000659892 -3.69299e-05 -0.000622962 0.000432841 -9.29244e-05 -0.000536989 -0.000708307 -0.000696276 -0.000690171
801.0 -0.000462907 -0.000851781 -0.000388874 0.000657344 -3.70166e-05 -0.000620327 0.000430629 -9.34204e-05 -0.000535376 -0.000705687 -0.00069353 -0.000687367
802.0 -0.000461277 -0.000848469 -0.000387192 0.000654873 -3.70429e-05 -0.00061783 0.000428494 -9.38855e-05 -0.000533801 -0.00070315 -0.000690876 -0.000684659
803.0 -0.000459599 -0.000845326 -0.000385727 0.000652463 -3.69362e-05 -0.000615526 0.000426437 -9.42707e-05 -0.000532234 -0.000700698 -0.000688326 -0.000682069
804.0 -0.000457918 -0.000842252 -0.000384334 0.000650085 -3.67922e-05 -0.000613293 0.000424437 -9.46547e-05 -0.00053067 -0.000698262 -0.000685797 -0.000679503
805.0 -0.000456278 -0.000839189 -0.000382911 0.000647733 -3.66831e-05 -0.00061105 0.000422497 -9.50883e-05 -0.000529135 -0.000695834 -0.000683272 -0.000676935
806.0 -0.00045465 -0.000836197 -0.000381547 0.000645423 -3.65514e-05 -0.000608872 0.000420453 -9.56294e-05 -0.000527673 -0.000693477 -0.000680809 -0.000674422
807.0 -0.000453037 -0.000833393 -0.000380357 0.000643215 -3.634e-05 -0.000606875 0.000418441 -9.61532e-05 -0.000526282 -0.000691252 -0.000678491 -0.000672062
808.0 -0.000451448 -0.000830689 -0.000379241 0.000641068 -3.61037e-05 -0.000604965 0.000416531 -9.65804e-05 -0.00052487 -0.00068907 -0.000676238 -0.000669778
809.0 -0.000449876 -0.00082801 -0.000378134 0.000638943 -3.58713e-05 -0.000603072 0.000414769 -9.68161e-05 -0.000523399 -0.000686895 -0.00067402 -0.000667541
810.0 -0.000448274 -0.000825313 -0.000377039 0.000636794 -3.56176e-05 -0.000601176 0.000413087 -9.68266e-05 -0.000521831 -0.000684687 -0.000671797 -0.00066531
811.0 -0.000446618 -0.000822592 -0.000375974 0.000634605 -3.5322e-05 -0.000599283 0.00041128 -9.68407e-05 -0.000520221 -0.000682447 -0.000669547 -0.000663059
812.0 -0.00044492 -0.000819833 -0.000374913 0.000632376 -3.50035e-05 -0.000597373 0.000409441 -9.68354e-05 -0.000518567 -0.000680178 -0.000667276 -0.000660795
813.0 -0.000443219 -0.000817071 -0.000373852 0.000630145 -3.46832e-05 -0.000595462 0.000407627 -9.6802e-05 -0.000516912 -0.000677921 -0.00066502 -0.000658545
814.0 -0.000441516 -0.000814294 -0.000372778 0.000627905 -3.4369e-05 -0.000593536 0.000405838 -9.67012e-05 -0.000515222 -0.000675648 -0.000662754 -0.000656288
815.0 -0.000439815 -0.000811491 -0.000371677 0.000625653 -3.40692e-05 -0.000591584 0.000404024 -9.65147e-05 -0.000513472 -0.000673329 -0.000660453 -0.000653999
816.0 -0.00043815 -0.000808652 -0.000370502 0.000623401 -3.3824e-05 -0.000589577 0.00040213 -9.62897e-05 -0.000511691 -0.000670973 -0.000658115 -0.000651673
817.0 -0.000436572 -0.000805894 -0.000369323 0.000621233 -3.36245e-05 -0.000587608 0.000400176 -9.61076e-05 -0.000509983 -0.000668681 -0.00065583 -0.000649393
818.0 -0.000435029 -0.000803192 -0.000368163 0.00061911 -3.34331e-05 -0.000585677 0.000398134 -9.602e-05 -0.00050838 -0.000666479 -0.000653609 -0.000647166
819.0 -0.000433521 -0.000800551 -0.00036703 0.000617036 -3.32457e-05 -0.000583791 0.000395979 -9.60386e-05 -0.00050688 -0.000664357 -0.000651444 -0.000644982
820.0 -0.000431996 -0.000797886 -0.000365889 0.000614941 -3.30535e-05 -0.000581888 0.000393723 -9.6068e-05 -0.000505345 -0.000662185 -0.000649236 -0.000642758
821.0 -0.000430409 -0.000795085 -0.000364676 0.000612747 -3.28663e-05 -0.000579881 0.000391249 -9.61383e-05 -0.000503731 -0.000659896 -0.000646906 -0.000640412
822.0 -0.000428795 -0.000792157 -0.000363363 0.000610476 -3.27161e-05 -0.00057776 0.000388563 -9.63231e-05 -0.00050211 -0.00065753 -0.00064448 -0.000637957
823.0 -0.000427161 -0.000789102 -0.000361942 0.000608132 -3.26095e-05 -0.000575522 0.000385858 -9.64325e-05 -0.000500379 -0.000655053 -0.000641954 -0.000635409
824.0 -0.00042548 -0.000786029 -0.000360549 0.000605754 -3.24657e-05 -0.000573289 0.000383106 -9.64819e-05 -0.000498626 -0.000652549 -0.000639396 -0.000632831
825.0 -0.000423771 -0.000782866 -0.000359094 0.000603318 -3.23386e-05 -0.00057098 0.000380373 -9.6487e-05 -0.00049681 -0.000649958 -0.000636749 -0.000630165
826.0 -0.000422077 -0.00077963 -0.000357553 0.000600854 -3.2262e-05 -0.000568592 0.000377672 -9.65542e-05 -0.000494963 -0.000647293 -0.000634028 -0.000627428
827.0 -0.000420426 -0.000776385 -0.000355959 0.000598406 -3.22333e-05 -0.000566172 0.000375021 -9.67278e-05 -0.000493152 -0.00064463 -0.000631299 -0.000624683
828.0 -0.000418842 -0.000773202 -0.000354361 0.000596022 -3.22405e-05 -0.000563781 0.000372329 -9.70712e-05 -0.000491508 -0.000642096 -0.000628667 -0.000622016
829.0 -0.000417289 -0.000770075 -0.000352786 0.000593682 -3.22515e-05 -0.000561431 0.000369614 -9.75441e-05 -0.000490005 -0.000639682 -0.000626129 -0.000619428
830.0 -0.000415777 -0.000766856 -0.00035108 0.000591316 -3.23484e-05 -0.000558968 0.000366895 -9.81684e-05 -0.000488636 -0.000637342 -0.000623629 -0.000616857
831.0 -0.000414297 -0.00076372 -0.000349423 0.000589009 -3.24372e-05 -0.000556571 0.00036428 -9.88435e-05 -0.00048737 -0.000635108 -0.000621222 -0.000614372
832.0 -0.000412841 -0.000760753 -0.000347912 0.000586797 -3.24648e-05 -0.000554333 0.00036187 -9.94544e-05 -0.000486138 -0.000632965 -0.000618922 -0.000612003
833.0 -0.000411454 -0.000757893 -0.000346439 0.000584674 -3.25075e-05 -0.000552166 0.000359608 -0.000100051 -0.000484952 -0.000630883 -0.000616685 -0.000609695
834.0 -0.000410121 -0.000755138 -0.000345016 0.00058263 -3.25526e-05 -0.000550077 0.000357402 -0.000100691 -0.000483835 -0.000628881 -0.000614525 -0.000607459
835.0 -0.000408814 -0.000752481 -0.000343667 0.000580647 -3.25737e-05 -0.000548074 0.000355354 -0.000101241 -0.000482704 -0.000626917 -0.000612423 -0.000605288
836.0 -0.000407527 -0.000749902 -0.000342376 0.000578715 -3.25756e-05 -0.000546139 0.000353476 -0.000101674 -0.000481536 -0.000624972 -0.000610368 -0.000603177
837.0 -0.000406266 -0.00074738 -0.000341113 0.000576823 -3.25765e-05 -0.000544246 0.00035178 -0.000102049 -0.000480354 -0.000623043 -0.000608344 -0.000601106
838.0 -0.000405014 -0.000744879 -0.000339865 0.000574947 -3.25744e-05 -0.000542372 0.000350217 -0.000102345 -0.000479118 -0.000621088 -0.000606319 -0.000599043
839.0 -0.000403759 -0.000742427 -0.000338668 0.000573093 -3.25459e-05 -0.000540547 0.000348777 -0.000102543 -0.000477816 -0.000619119 -0.000604306 -0.000597009
840.0 -0.000402512 -0.000740032 -0.00033752 0.000571272 -3.24958e-05 -0.000538776 0.000347446 -0.000102674 -0.000476487 -0.000617161 -0.000602327 -0.000595016
