0      0      0      0      0      0      0      0      0      0      0      0      0
1 -0.00983109 -0.0109115 -0.00108043 0.0103713 -0.00437533 -0.00599598 0.00764721 -0.00350103 -0.00709808 -0.00765562 -0.00729693 -0.0070505
2 -0.0262623 -0.0284033 -0.00214103 0.0273328 -0.0120606 -0.0152722 0.0195848 -0.0101261 -0.0190034 -0.0200988 -0.0190575 -0.0183439
3 -0.0455525 -0.0439349 0.00161768 0.0447437 -0.0235851 -0.0211586 0.0353134 -0.0160966 -0.0297239 -0.0308302 -0.0292877 -0.0280843
4 -0.0494341 -0.043502 0.00593209 0.046468 -0.0276831 -0.0187849 0.0401737 -0.0158337 -0.0295966 -0.0303316 -0.028879 -0.0276165
5 -0.0575444 -0.0609511 -0.00340662 0.0592478 -0.0270689 -0.0321788 -0.00147573 -0.050563 -0.0544991 -0.0490431 -0.0428422 -0.0393442
6 -0.0308907 -0.0269058 0.00398487 0.0288982 -0.0174378 -0.0114605 -0.000534921 -0.0277153 -0.0286541 -0.0246421 -0.0210188 -0.018956
7 0.000782051 0.0200156 0.0192336 -0.0103988 -0.00922576 0.0196246 0.0120448 0.00887565 0.00967752 0.0108854 0.0101021 0.00993834
8 0.00968998 0.0260017 0.0163117 -0.0178458 -0.00331086 0.0211567 0.00883732 0.0139181 0.0143437 0.0145285 0.01337 0.0128794
9 0.00554083 0.0231509 0.0176101 -0.0143459 -0.00603461 0.0203805 0.00664376 0.00590017 0.00882429 0.0112411 0.0111908 0.0113523
10 0.00512557 0.020856 0.0157305 -0.0129908 -0.00530244 0.0182932 0.0027495 0.00161683 0.00588153 0.00925539 0.00991093 0.0104028
11 0.00335673 0.0195606 0.0162039 -0.0114587 -0.00642359 0.0178823 -0.00302433 -0.00480337 0.00173791 0.00693457 0.00864166 0.00969259
12 -0.000124095 0.0178732 0.0179973 -0.00887457 -0.00906071 0.0179353 -0.00889429 -0.01222 -0.00267366 0.00466905 0.0074666 0.00912238
13 -0.00285094 0.0164337 0.0192847 -0.00679139 -0.0110678 0.0178592 -0.0061064 -0.0150343 -0.0052714 0.00301857 0.00638983 0.00838698
14 -0.00499022 0.0158879 0.0208781 -0.00544882 -0.0129342 0.018383 -0.00191058 -0.017093 -0.00677837 0.00246338 0.00626929 0.00853612
15 -0.00487235 0.0222955 0.0271678 -0.00871156 -0.0160201 0.0247317 0.00391982 -0.0162121 -0.00415222 0.00654477 0.0104529 0.0128799
16 -0.00410281 0.0310952 0.035198 -0.0134962 -0.0196504 0.0331466 0.010175 -0.0142825 0.000354185 0.0126765 0.0164939 0.0190034
17 -0.00156979 0.0376863 0.0392561 -0.0180583 -0.0204129 0.0384712 0.0129745 -0.0143761 0.00299466 0.0167734 0.0207736 0.0234199
18 0.000689193 0.0462107 0.0455215 -0.0234499 -0.0224161 0.0458661 0.013756 -0.0173377 0.00474839 0.021355 0.0260709 0.0291625
19 0.00180659 0.0486843 0.0468777 -0.0252454 -0.0225355 0.047781 0.00976258 -0.0251671 0.00168284 0.0212327 0.0273615 0.0311337
20 0.00310583 0.0502442 0.0471384 -0.026675 -0.0220163 0.0486913 0.0101747 -0.0304021 -0.000539841 0.0209104 0.0280355 0.0322475
21 0.00254506 0.0505516 0.0480065 -0.0265483 -0.0227307 0.0492791 0.0147564 -0.0335879 -0.00307751 0.0195436 0.027457 0.0320198
22 0.00398354 0.0572146 0.053231 -0.0305991 -0.0246238 0.0552228 0.0223468 -0.035736 -0.00370483 0.0208572 0.029579 0.0345521
23 0.00901743 0.0680264 0.0590089 -0.0385219 -0.0249957 0.0635176 0.0341489 -0.0318669 0.000589452 0.0258697 0.0344718 0.0393743
24 0.0166725 0.0814039 0.0647315 -0.0490382 -0.0240295 0.0730677 0.036502 -0.0326584 0.00396966 0.0315982 0.0407352 0.045884
25 0.0305299 0.096804 0.0662741 -0.063667 -0.0178721 0.081539 0.031799 -0.032533 0.00835866 0.0377984 0.047415 0.0526554
26 0.0441915 0.115322 0.0711301 -0.0797566 -0.0134693 0.0932259 0.0283974 -0.0245753 0.0176581 0.0474151 0.0563503 0.061169
27 0.0589062 0.125031 0.0661253 -0.0919688 -0.00360954 0.0955783 0.0386066 -0.00718693 0.0289768 0.0549132 0.061798 0.0654052
28 0.0695316 0.137925 0.068393 -0.103728 0.000569314 0.103159 0.0651246 0.015345 0.0437483 0.0655618 0.0696204 0.0717841
29 0.0846571 0.151606 0.0669485 -0.118131 0.0088543 0.109277 0.0643302 0.0280266 0.056344 0.0764932 0.0789527 0.0801494
30 0.0983146 0.167222 0.0689077 -0.132768 0.0147035 0.118065 0.0560392 0.0421724 0.0719803 0.0904074 0.0907166 0.0907527
31 0.107538 0.18449 0.0769523 -0.146014 0.0152928 0.130721 0.0578989 0.0551903 0.0859154 0.103883 0.102329 0.10154
32 0.111114 0.19485 0.0837359 -0.152982 0.0136893 0.139293 0.0671327 0.0642696 0.0932964 0.110663 0.107902 0.106677
33 0.120376 0.207621 0.0872448 -0.163999 0.0165657 0.147433 0.0572589 0.069401 0.101532 0.119546 0.116187 0.114687
34 0.129065 0.220925 0.0918601 -0.174995 0.0186025 0.156393 0.043287 0.0715001 0.108116 0.127541 0.124054 0.122515
35 0.13834 0.23515 0.09681 -0.186745 0.0207651 0.16598 0.0310039 0.0770869 0.117396 0.137238 0.133101 0.131236
36 0.148495 0.243991 0.0954956 -0.196243 0.0264998 0.169743 0.00580087 0.0752418 0.120774 0.141702 0.137858 0.136024
37 0.155066 0.256256 0.10119 -0.205661 0.0269378 0.178723 -0.0123501 0.0727033 0.12535 0.149162 0.145757 0.144202
38 0.161425 0.263806 0.102382 -0.212615 0.0295215 0.183094 -0.00791384 0.0842045 0.133839 0.155651 0.151082 0.149005
39 0.170942 0.25958 0.088638 -0.215261 0.0411521 0.174109 -0.0227166 0.085023 0.133382 0.152948 0.148741 0.146499
40 0.180713 0.259541 0.0788279 -0.220127 0.0509427 0.169185 -0.0515984 0.0791363 0.132162 0.151742 0.148355 0.146199
41 0.186518 0.263096 0.0765778 -0.224807 0.0549702 0.169837 -0.0542925 0.0816506 0.136802 0.156816 0.15346 0.151284
42 0.191532 0.275868 0.0843356 -0.2337 0.0535983 0.180102 -0.0479241 0.0917538 0.150238 0.171162 0.166487 0.163706
43 0.194022 0.283634 0.0896114 -0.238828 0.0522055 0.186623 -0.0450599 0.100321 0.161391 0.18273 0.176674 0.173266
44 0.198199 0.292296 0.0940968 -0.245248 0.0520512 0.193196 -0.0420807 0.107827 0.171206 0.192717 0.185595 0.181631
45 0.208661 0.305512 0.0968506 -0.257087 0.0559053 0.201181 -0.0544529 0.108192 0.178157 0.201438 0.194237 0.190082
46 0.215183 0.313079 0.0978968 -0.264131 0.0586429 0.205488 -0.0590697 0.106362 0.180091 0.20517 0.198594 0.194603
47 0.217998 0.315555 0.0975568 -0.266776 0.0602206 0.206556 -0.0563923 0.105111 0.180058 0.206478 0.200634 0.196921
48 0.219444 0.317257 0.0978138 -0.26835 0.0608149 0.207536 -0.0480674 0.105138 0.179551 0.206966 0.20175 0.198348
49 0.220103 0.315018 0.0949146 -0.26756 0.0625942 0.204966 -0.0459821 0.100253 0.175087 0.204048 0.200105 0.197275
50 0.219278 0.309168 0.0898902 -0.264223 0.0646939 0.199529 -0.0425695 0.102598 0.1736 0.200252 0.196063 0.19305
51 0.216356 0.308615 0.0922593 -0.262485 0.0620482 0.200437 -0.0365618 0.0968305 0.168679 0.196952 0.19363 0.191207
52 0.216531 0.311762 0.0952303 -0.264147 0.0606506 0.203496 -0.0430951 0.0877253 0.166754 0.199311 0.197384 0.195801
53 0.216509 0.317859 0.10135 -0.267184 0.0575795 0.209605 -0.0737348 0.0713461 0.163417 0.203093 0.203579 0.203292
54 0.212245 0.3237 0.111455 -0.267973 0.0503952 0.217577 -0.11193 0.0465684 0.154877 0.203339 0.207082 0.208656
55 0.215984 0.327168 0.111184 -0.271576 0.0524001 0.219176 -0.174672 0.00962013 0.14232 0.2021 0.21081 0.214724
56 0.226487 0.32441 0.097923 -0.275448 0.064282 0.211167 -0.228362 -0.00787705 0.139571 0.204415 0.215881 0.220744
57 0.236042 0.334748 0.0987057 -0.285395 0.0686683 0.216727 -0.256667 -0.0166527 0.145205 0.215042 0.227373 0.232357
58 0.245611 0.352327 0.106716 -0.298969 0.0694477 0.229521 -0.274039 -0.0193312 0.156465 0.230385 0.242141 0.246567
59 0.251041 0.361967 0.110926 -0.306504 0.0700576 0.236446 -0.285778 -0.0173787 0.166182 0.241344 0.251915 0.255645
60 0.256307 0.370023 0.113715 -0.313165 0.0712961 0.241869 -0.296944 -0.0200532 0.171467 0.249654 0.260171 0.263686
61 0.261292 0.370711 0.109419 -0.316002 0.0759368 0.240065 -0.301644 -0.0198429 0.177185 0.256289 0.266242 0.269136
62 0.258626 0.355993 0.0973673 -0.307309 0.0806293 0.22668 -0.301927 -0.0276851 0.167074 0.247253 0.258889 0.262389
63 0.255374 0.33196 0.0765864 -0.293667 0.0893937 0.204273 -0.290484 -0.0280934 0.159142 0.235314 0.246494 0.249186
64 0.256517 0.311462 0.054945 -0.28399 0.100786 0.183204 -0.284564 -0.0258629 0.15795 0.229314 0.238591 0.239595
65 0.255496 0.289465 0.0339693 -0.27248 0.110763 0.161717 -0.267565 -0.0152561 0.159923 0.223903 0.230265 0.229237
66 0.251466 0.258489 0.00702316 -0.254978 0.122222 0.132756 -0.25087 -0.0061656 0.15943 0.215096 0.218974 0.216193
67 0.248356 0.232821 -0.0155343 -0.240589 0.131945 0.108644 -0.238098 -0.00216893 0.158955 0.208348 0.210746 0.206713
68 0.240411 0.210018 -0.0303928 -0.225214 0.135402 0.0898126 -0.230969 -0.000203021 0.158153 0.201082 0.202142 0.196928
69 0.238137 0.194816 -0.0433211 -0.216476 0.140729 0.0757473 -0.246999 -0.0180045 0.147138 0.190604 0.194753 0.190551
70 0.234633 0.195404 -0.0392295 -0.215019 0.136932 0.0780872 -0.246374 -0.00983479 0.157292 0.19737 0.199856 0.194629
71 0.236839 0.194678 -0.0421612 -0.215759 0.1395 0.0762585 -0.249576 -0.00633103 0.165422 0.204208 0.206076 0.200056
72 0.240108 0.198631 -0.0414772 -0.219369 0.140792 0.0785767 -0.244672 -0.00084187 0.176621 0.215711 0.21698 0.210285
73 0.241222 0.203809 -0.0374122 -0.222516 0.139317 0.0831986 -0.238324 -0.001608 0.186231 0.228873 0.230736 0.223766
74 0.242785 0.201109 -0.0416763 -0.221947 0.142231 0.0797162 -0.237922 -0.00920075 0.188864 0.234735 0.238443 0.231571
75 0.241622 0.202712 -0.0389093 -0.222167 0.140266 0.0819016 -0.236916 -0.0181737 0.186948 0.237451 0.243368 0.23713
76 0.239451 0.207532 -0.0319192 -0.223492 0.135685 0.0878064 -0.227623 -0.0156874 0.191573 0.244179 0.250452 0.244136
77 0.235112 0.205806 -0.0293059 -0.220459 0.132209 0.08825 -0.217567 -0.00971891 0.192998 0.244074 0.249868 0.24321
78 0.233858 0.208702 -0.0251563 -0.22128 0.129507 0.0917727 -0.207478 -0.00462176 0.19661 0.247961 0.253774 0.246843
79 0.236156 0.213589 -0.0225671 -0.224872 0.129361 0.0955108 -0.203969 -0.00573174 0.203345 0.257486 0.26348 0.255972
80 0.235987 0.218166 -0.0178205 -0.227076 0.126904 0.100173 -0.19963 -0.00574746 0.211276 0.267642 0.273469 0.265353
81 0.23412 0.223353 -0.0107668 -0.228737 0.122443 0.106293 -0.198344 -0.0124501 0.211896 0.27339 0.280475 0.27245
82 0.23173 0.22801 -0.00372051 -0.22987 0.117725 0.112145 -0.194662 -0.0128356 0.21509 0.279706 0.287316 0.279072
83 0.232073 0.225743 -0.00633021 -0.228908 0.119202 0.109706 -0.191797 -0.0119968 0.217504 0.282304 0.290208 0.281494
84 0.23447 0.222078 -0.0123924 -0.228274 0.123431 0.104843 -0.196963 -0.0236871 0.210969 0.280675 0.291065 0.282659
85 0.233212 0.224001 -0.00921099 -0.228607 0.121212 0.107395 -0.200922 -0.0322337 0.210491 0.285072 0.296655 0.288273
86 0.224605 0.230128 0.00552283 -0.227367 0.109541 0.117825 -0.199104 -0.0412816 0.209704 0.290551 0.302653 0.294481
87 0.208787 0.232722 0.0239349 -0.220754 0.0924259 0.128328 -0.186081 -0.0542791 0.194322 0.284763 0.299162 0.292812
88 0.199187 0.234627 0.0354403 -0.216907 0.0818735 0.135034 -0.175808 -0.0568252 0.187899 0.283123 0.29845 0.292897
89 0.19399 0.232056 0.0380664 -0.213023 0.0779617 0.135061 -0.170378 -0.0542895 0.184904 0.279833 0.295142 0.289674
90 0.189708 0.231988 0.0422806 -0.210848 0.0737135 0.137134 -0.164117 -0.0473261 0.18864 0.281235 0.294964 0.288656
91 0.184184 0.225543 0.041359 -0.204863 0.0714124 0.133451 -0.158487 -0.0406338 0.19123 0.278165 0.289343 0.281768
92 0.179003 0.208354 0.0293511 -0.193678 0.0748258 0.118853 -0.150191 -0.0297445 0.194545 0.27182 0.27928 0.269717
93 0.173941 0.189324 0.0153831 -0.181633 0.0792792 0.102354 -0.143265 -0.0219391 0.191555 0.260415 0.265927 0.255164
94 0.176271 0.171002 -0.00526875 -0.173636 0.0907697 0.0828666 -0.149306 -0.0288232 0.181234 0.247535 0.254288 0.243247
95 0.167808 0.160958 -0.00685072 -0.164383 0.0873296 0.0770535 -0.141574 -0.0250602 0.176573 0.238895 0.24473 0.233396
96 0.160152 0.148504 -0.011648 -0.154328 0.0858999 0.0684279 -0.138942 -0.0356125 0.155539 0.21775 0.225859 0.215856
97 0.153318 0.128113 -0.0252051 -0.140715 0.0892614 0.0514538 -0.140338 -0.0491391 0.130025 0.191164 0.202285 0.194224
98 0.141939 0.114867 -0.0270718 -0.128403 0.0845053 0.0438975 -0.131917 -0.0509498 0.117336 0.174925 0.185146 0.177222
99 0.12539 0.106754 -0.0186364 -0.116072 0.0720133 0.0440587 -0.117093 -0.0494192 0.105501 0.162108 0.171199 0.164016
100 0.103942 0.101262 -0.00267938 -0.102602 0.0533105 0.0492914 -0.0940894 -0.037766 0.0969885 0.148232 0.154832 0.148676
101 0.081526 0.092866 0.01134 -0.087196 0.035093 0.052103 -0.067655 -0.0175307 0.0929815 0.133785 0.136024 0.130129
102 0.0583724 0.0867043 0.0283319 -0.0725384 0.0150203 0.0575181 -0.0395994 0.0022295 0.0877741 0.120782 0.11966 0.114453
103 0.036052 0.0785546 0.0425027 -0.0573033 -0.00322537 0.0605287 -0.0201873 0.00539361 0.0623825 0.0957196 0.0967762 0.0948361
104 0.0213568 0.0675951 0.0462383 -0.044476 -0.0124407 0.0569167 -0.0102349 -0.000852307 0.0329715 0.0709539 0.0759387 0.0771806
105 0.0177629 0.0647076 0.0469447 -0.0412353 -0.0145909 0.0558262 -0.0112268 -0.00446015 0.0289277 0.0650821 0.0701894 0.0717532
106 0.0147737 0.0650037 0.05023 -0.0398887 -0.0177281 0.0576168 -0.0107087 -0.00578905 0.0277198 0.0624147 0.0672243 0.0691579
107 0.0145011 0.0628585 0.0483575 -0.0386798 -0.0169282 0.055608 -0.0133786 -0.00851302 0.0248242 0.0583161 0.0635078 0.0658193
108 0.0157982 0.0560892 0.040291 -0.0359437 -0.0122464 0.0481901 -0.0185548 -0.0124369 0.0189248 0.0497623 0.0555244 0.0581441
109 0.0153862 0.0501712 0.034785 -0.0327787 -0.00969941 0.0424781 -0.020976 -0.0147275 0.014334 0.0423662 0.0480701 0.0507664
110 0.0113426 0.0319777 0.0206351 -0.0216602 -0.00464626 0.0263064 -0.0180067 -0.00904035 0.0094378 0.0260013 0.0288074 0.0301639
111 0.0065553 0.0218009 0.0152456 -0.0141781 -0.00434515 0.0185233 -0.00950029 0.00475001 0.0156235 0.0213499 0.0189011 0.0174959
112 0.0060431 0.0220115 0.0159684 -0.0140273 -0.00496263 0.0189899 -0.00907997 0.00767358 0.0185781 0.0224812 0.0188113 0.0168094
113 0.00815781 0.0242237 0.0160659 -0.0161908 -0.00395405 0.0201448 -0.0144493 0.00277704 0.0165017 0.0227055 0.0203957 0.0190473
114 0.0113684 0.0261035 0.0147351 -0.018736 -0.00168333 0.0204193 -0.0214369 -0.00421133 0.0130853 0.022629 0.0224544 0.0220304
115 0.0127208 0.0272345 0.0145137 -0.0199776 -0.000896436 0.0208741 -0.0256317 -0.00861011 0.0108092 0.0222403 0.0233628 0.0235815
116 0.0138042 0.0282629 0.0144587 -0.0210336 -0.00032724 0.0213608 -0.0295931 -0.0133213 0.00809618 0.021632 0.0241652 0.0250513
117 0.0140333 0.0260667 0.0120334 -0.02005 0.00099998 0.01905 -0.0309868 -0.0146929 0.006404 0.0193856 0.0223525 0.0234359
118 0.0144906 0.0230998 0.00860917 -0.0187952 0.00294071 0.0158545 -0.0326127 -0.0160911 0.00448806 0.016678 0.0200798 0.0212887
119 0.0151948 0.0196906 0.00449581 -0.0174427 0.00534948 0.0120932 -0.0338147 -0.0161824 0.00350091 0.014059 0.0175017 0.0186066
120 0.0147399 0.0178656 0.00312562 -0.0163028 0.00580716 0.0104956 -0.034418 -0.0173597 0.00152427 0.0116551 0.01548 0.0167934
121 0.0142408 0.0134479 -0.000792931 -0.0138443 0.00751687 0.00632747 -0.03429 -0.0170619 -0.000229688 0.00781521 0.0116904 0.0130274
122 0.0124828 0.0101999 -0.00228283 -0.0113413 0.00738279 0.00395854 -0.0323733 -0.0157306 -0.0011699 0.0048732 0.00844547 0.00978472
123 0.0115759 0.00979583 -0.00178003 -0.0106858 0.00667794 0.0040079 -0.0310953 -0.0148441 -0.000561407 0.00507008 0.00834083 0.00958145
124 0.0116763 0.00991316 -0.00176316 -0.0107947 0.00671974 0.004075 -0.0313382 -0.0152003 -0.000104634 0.00598201 0.00929514 0.0104843
125 0.0116653 0.00995581 -0.00170946 -0.0108105 0.00668737 0.00412317 -0.0313683 -0.0153576 0.000383754 0.00680323 0.0101006 0.0112245
126 0.0114795 0.00994436 -0.00153517 -0.0107119 0.00650735 0.00420459 -0.0314812 -0.0157384 0.000573147 0.00735046 0.0106772 0.0117714
127 0.0112176 0.00955288 -0.00166469 -0.0103852 0.00644113 0.00394409 -0.0315148 -0.0160496 0.0006153 0.00760427 0.0109555 0.0120205
128 0.0108364 0.00900729 -0.00182916 -0.00992187 0.0063328 0.00358907 -0.0313692 -0.0162785 0.000567943 0.00767918 0.0110408 0.0120783
129 0.0103912 0.00850441 -0.00188676 -0.00944779 0.00613896 0.00330882 -0.0310965 -0.0164103 0.000547726 0.00774077 0.0110817 0.0120852
130 0.00988551 0.00792406 -0.00196144 -0.00890478 0.00592347 0.00298131 -0.0307839 -0.0165433 0.000447492 0.00769088 0.0110119 0.0119864
131 0.00932673 0.00727453 -0.0020522 -0.00830063 0.00568947 0.00261116 -0.0304357 -0.0166766 0.000275455 0.00754094 0.0108427 0.0117927
132 0.00872016 0.00656598 -0.00215418 -0.00764307 0.00543717 0.0022059 -0.0300563 -0.0168109 3.84302e-05 0.00730135 0.0105845 0.0115142
133 0.00807018 0.00580536 -0.00226482 -0.00693777 0.0051675 0.00177027 -0.0296472 -0.0169451 -0.000257235 0.00698058 0.0102455 0.0111587
134 0.00738075 0.00499943 -0.00238132 -0.00619009 0.00488103 0.00130906 -0.0292095 -0.0170785 -0.000606033 0.00658625 0.00983329 0.0107336
135 0.00665577 0.00415214 -0.00250363 -0.00540396 0.0045797 0.000824256 -0.0287457 -0.0172103 -0.00100346 0.0061244 0.00935378 0.0102445
136 0.00589878 0.00326853 -0.00263024 -0.00458366 0.00426451 0.000319145 -0.0282593 -0.0173401 -0.00144484 0.00560145 0.0088134 0.00969748
137 0.0051131 0.00235262 -0.00276048 -0.00373286 0.00393679 -0.000203931 -0.0277525 -0.0174689 -0.00192704 0.0050224 0.00821733 0.00909771
138 0.00430227 0.00140817 -0.0028941 -0.00285522 0.00359818 -0.000742964 -0.0272277 -0.0175966 -0.00244651 0.00439218 0.00757058 0.00844997
139 0.00346854 0.000438018 -0.00303052 -0.00195328 0.00324953 -0.00129625 -0.0266858 -0.0177235 -0.0030004 0.00371498 0.00687738 0.00775833
140 0.002615 -0.000554048 -0.00316905 -0.00103048 0.00289202 -0.00186155 -0.0261293 -0.0178484 -0.00358501 0.00299553 0.00614235 0.00702723
141 0.00174419 -0.00156547 -0.00330967 -8.93613e-05 0.00252693 -0.00243757 -0.0255611 -0.0179725 -0.00419785 0.00223768 0.00536942 0.00626043
142 0.000858008 -0.00259369 -0.0034517 0.000867843 0.00215486 -0.0030227 -0.0249826 -0.0180962 -0.00483667 0.00144471 0.00456195 0.00546117
143 -4.15196e-05 -0.00363733 -0.00359581 0.00183942 0.00177714 -0.00361657 -0.0243942 -0.0182186 -0.00549936 0.000619377 0.00372272 0.00463213
144 -0.00095245 -0.0046927 -0.00374025 0.00282258 0.0013939 -0.00421648 -0.0237976 -0.0183397 -0.00618258 -0.000233982 0.00285592 0.00377729
145 -0.00187288 -0.00575866 -0.00388578 0.00381577 0.00100645 -0.00482222 -0.0231938 -0.0184594 -0.00688482 -0.00111323 0.00196381 0.00289885
146 -0.00280088 -0.00683385 -0.00403296 0.00481736 0.000616039 -0.0054334 -0.0225856 -0.0185781 -0.0076045 -0.00201621 0.00104847 0.00199869
147 -0.00373458 -0.00791667 -0.0041821 0.00582563 0.00022376 -0.00604938 -0.0219748 -0.0186965 -0.00833994 -0.00294041 0.000112562 0.00107946
148 -0.00467298 -0.00900463 -0.00433165 0.00683881 -0.000170668 -0.00666814 -0.021359 -0.0188129 -0.00908845 -0.00388269 -0.000840913 0.000144008
149 -0.00561421 -0.0100974 -0.00448318 0.0078558 -0.000565515 -0.00729029 -0.0207425 -0.0189286 -0.00984875 -0.00484133 -0.00181022 -0.0008061
150 -0.00655802 -0.0111941 -0.00463613 0.00887608 -0.000960942 -0.00791514 -0.0201246 -0.0190431 -0.0106199 -0.00581497 -0.00279412 -0.0017697
151 -0.00750226 -0.012293 -0.00479076 0.00989764 -0.00135575 -0.00854189 -0.0195078 -0.019157 -0.0114002 -0.0068013 -0.00379011 -0.00274438
152 -0.00844603 -0.0133929 -0.00494685 0.0109195 -0.00174959 -0.00916986 -0.0188922 -0.0192702 -0.0121881 -0.00779824 -0.00479615 -0.00372814
153 -0.0093883 -0.0144927 -0.00510442 0.0119405 -0.00214194 -0.00979857 -0.0182781 -0.0193818 -0.0129818 -0.00880378 -0.00581044 -0.00471937
154 -0.0103282 -0.0155917 -0.00526347 0.01296 -0.00253238 -0.0104276 -0.0176664 -0.0194923 -0.0137804 -0.00981672 -0.0068316 -0.00571671
155 -0.0112648 -0.0166894 -0.0054246 0.0139771 -0.00292009 -0.011057 -0.0170579 -0.019602 -0.0145834 -0.0108359 -0.00785858 -0.0067192
156 -0.0121968 -0.017786 -0.00558925 0.0149914 -0.00330375 -0.0116876 -0.0164538 -0.0197118 -0.0153904 -0.011861 -0.00889065 -0.00772611
157 -0.0131238 -0.0188789 -0.00575512 0.0160014 -0.00368435 -0.012317 -0.0158538 -0.0198205 -0.0161987 -0.0128885 -0.0099248 -0.00873463
158 -0.014045 -0.0199681 -0.0059231 0.0170066 -0.00406095 -0.0129456 -0.0152579 -0.0199276 -0.0170073 -0.0139176 -0.0109603 -0.00974409
159 -0.0149601 -0.021053 -0.00609286 0.0180065 -0.00443361 -0.0135729 -0.0146664 -0.0200329 -0.0178153 -0.0149471 -0.0119958 -0.0107533
160 -0.0158682 -0.0221331 -0.00626488 0.0190007 -0.00480167 -0.014199 -0.0140803 -0.020137 -0.0186219 -0.0159759 -0.0130303 -0.0117612
161 -0.0167691 -0.0232087 -0.00643963 0.0199889 -0.00516472 -0.0148242 -0.0134995 -0.0202401 -0.0194266 -0.0170035 -0.0140632 -0.0127675
162 -0.017662 -0.0242787 -0.00661672 0.0209704 -0.00552264 -0.0154477 -0.0129253 -0.0203427 -0.0202293 -0.0180288 -0.0150935 -0.0137708
163 -0.0185464 -0.0253428 -0.00679634 0.0219446 -0.00587505 -0.0160696 -0.0123564 -0.0204439 -0.0210284 -0.0190508 -0.0161201 -0.0147705
164 -0.019422 -0.0264017 -0.00697965 0.0229118 -0.00622118 -0.0166907 -0.0117937 -0.0205437 -0.0218236 -0.020069 -0.0171427 -0.0157661
165 -0.0202892 -0.0274541 -0.00716481 0.0238716 -0.00656221 -0.0173094 -0.0112363 -0.0206424 -0.0226143 -0.0210823 -0.0181601 -0.0167565
166 -0.0211476 -0.0284993 -0.00735169 0.0248235 -0.00689797 -0.0179255 -0.0106845 -0.020739 -0.0233995 -0.0220895 -0.0191714 -0.0177411
167 -0.0219969 -0.0295375 -0.0075406 0.0257672 -0.00722813 -0.018539 -0.0101373 -0.0208336 -0.0241783 -0.0230902 -0.0201761 -0.0187192
168 -0.0228366 -0.0305686 -0.007732 0.0267026 -0.00755231 -0.0191503 -0.00959595 -0.0209264 -0.0249507 -0.0240839 -0.0211738 -0.0196905
169 -0.0236671 -0.0315925 -0.00792534 0.0276298 -0.0078709 -0.0197589 -0.00905931 -0.0210168 -0.0257162 -0.0250701 -0.0221638 -0.0206545
170 -0.0244888 -0.0326094 -0.0081206 0.0285491 -0.00818408 -0.020365 -0.00852657 -0.0211049 -0.0264745 -0.0260483 -0.0231461 -0.0216111
171 -0.0253008 -0.0336189 -0.00831817 0.0294598 -0.0084913 -0.0209685 -0.00799839 -0.0211905 -0.0272247 -0.0270178 -0.0241197 -0.0225594
172 -0.0261035 -0.0346218 -0.00851827 0.0303626 -0.00879261 -0.02157 -0.0074748 -0.0212743 -0.0279681 -0.0279796 -0.0250854 -0.0235001
173 -0.0268967 -0.0356163 -0.00871962 0.0312565 -0.00908855 -0.022168 -0.00695474 -0.0213555 -0.0287031 -0.0289317 -0.0260417 -0.0244319
174 -0.027681 -0.0366035 -0.00892255 0.0321422 -0.00937921 -0.022763 -0.00643796 -0.0214338 -0.0294296 -0.0298746 -0.026989 -0.0253551
175 -0.028456 -0.0375836 -0.00912762 0.0330198 -0.00966419 -0.0233556 -0.00592328 -0.0215082 -0.0301469 -0.0308077 -0.0279268 -0.0262695
176 -0.0292221 -0.0385557 -0.00933361 0.0338889 -0.00994422 -0.0239446 -0.00541109 -0.0215797 -0.0308553 -0.0317307 -0.0288548 -0.0271747
177 -0.0299798 -0.0395207 -0.00954092 0.0347503 -0.0102194 -0.0245308 -0.00490014 -0.0216469 -0.0315545 -0.0326441 -0.0297737 -0.0280713
178 -0.03073 -0.0404785 -0.00974855 0.0356043 -0.0104907 -0.0251135 -0.00438896 -0.0217095 -0.0322441 -0.0335473 -0.0306832 -0.0289591
179 -0.0314717 -0.04143 -0.00995829 0.0364508 -0.0107567 -0.0256941 -0.00387883 -0.0217682 -0.0329245 -0.0344409 -0.0315833 -0.0298383
180 -0.0322054 -0.042374 -0.0101686 0.0372897 -0.0110184 -0.0262713 -0.00336937 -0.0218241 -0.0335967 -0.0353248 -0.0324741 -0.0307086
181 -0.0329315 -0.0433111 -0.0103796 0.0381213 -0.0112759 -0.0268453 -0.00285938 -0.0218757 -0.0342596 -0.0361987 -0.0333555 -0.0315702
182 -0.0336505 -0.0442414 -0.0105909 0.0389459 -0.0115298 -0.0274161 -0.00234796 -0.0219223 -0.034913 -0.0370627 -0.0342276 -0.0324234
183 -0.0343624 -0.045165 -0.0108026 0.0397637 -0.0117799 -0.0279838 -0.00183487 -0.0219638 -0.0355567 -0.0379167 -0.0350905 -0.033268
184 -0.0350675 -0.0460822 -0.0110146 0.0405749 -0.0120264 -0.0285484 -0.00132014 -0.0220015 -0.0361918 -0.0387612 -0.0359443 -0.0341042
185 -0.0357657 -0.0469926 -0.0112269 0.0413791 -0.0122694 -0.0291097 -0.00080341 -0.0220347 -0.036818 -0.0395957 -0.0367887 -0.0349316
186 -0.036458 -0.0478972 -0.0114393 0.0421776 -0.0125094 -0.0296683 -0.000283506 -0.022063 -0.0374352 -0.040421 -0.0376249 -0.0357514
187 -0.037145 -0.0487962 -0.0116511 0.0429706 -0.0127469 -0.0302237 0.000240302 -0.0220859 -0.0380439 -0.0412375 -0.0384529 -0.036564
188 -0.0378264 -0.0496892 -0.0118628 0.0437578 -0.0129818 -0.030776 0.000767827 -0.0221038 -0.0386436 -0.0420448 -0.0392724 -0.0373687
189 -0.0385027 -0.0505766 -0.0120739 0.0445397 -0.0132144 -0.0313253 0.00129971 -0.0221167 -0.0392352 -0.0428435 -0.0400844 -0.0381665
190 -0.0391743 -0.0514589 -0.0122846 0.0453166 -0.0134448 -0.0318718 0.00183652 -0.0221238 -0.0398181 -0.0436335 -0.0408885 -0.0389573
191 -0.0398411 -0.0523359 -0.0124948 0.0460885 -0.0136731 -0.0324154 0.00237763 -0.0221267 -0.0403935 -0.0444155 -0.0416852 -0.0397413
192 -0.0405041 -0.0532083 -0.0127042 0.0468562 -0.0139 -0.0329562 0.00292448 -0.022124 -0.0409612 -0.0451897 -0.0424752 -0.0405192
193 -0.0411635 -0.0540758 -0.0129123 0.0476197 -0.0141256 -0.0334941 0.003477 -0.022116 -0.0415213 -0.0459563 -0.0432584 -0.0412911
194 -0.0418193 -0.0549394 -0.0131201 0.0483793 -0.0143496 -0.0340297 0.00403507 -0.0221031 -0.0420744 -0.046716 -0.0440356 -0.0420577
195 -0.0424723 -0.0557991 -0.0133267 0.0491357 -0.0145728 -0.0345629 0.0045996 -0.0220847 -0.0426207 -0.0474693 -0.0448074 -0.0428195
196 -0.0431223 -0.0566547 -0.0135324 0.0498885 -0.014795 -0.0350935 0.00516979 -0.0220619 -0.0431605 -0.0482159 -0.0455733 -0.043576
197 -0.0437699 -0.0575067 -0.0137368 0.0506383 -0.0150166 -0.0356217 0.00574676 -0.0220337 -0.0436939 -0.0489564 -0.046334 -0.044328
198 -0.0444151 -0.0583553 -0.0139402 0.0513852 -0.0152375 -0.0361477 0.00632918 -0.0220018 -0.0442222 -0.0496916 -0.04709 -0.0450757
199 -0.0450584 -0.0592006 -0.0141422 0.0521295 -0.0154581 -0.0366714 0.00691789 -0.0219654 -0.0447451 -0.0504214 -0.0478413 -0.0458193
200 -0.0457 -0.0600427 -0.0143427 0.0528714 -0.0156787 -0.0371927 0.00751297 -0.0219248 -0.0452628 -0.0511463 -0.0485885 -0.0465592
201 -0.0463402 -0.0608824 -0.0145422 0.0536113 -0.015899 -0.0377123 0.0081143 -0.0218796 -0.0457757 -0.0518667 -0.0493321 -0.047296
202 -0.0469793 -0.0617195 -0.0147402 0.0543494 -0.0161195 -0.0382299 0.00872173 -0.0218309 -0.0462844 -0.052583 -0.0500723 -0.04803
203 -0.0476174 -0.0625545 -0.0149372 0.0550859 -0.0163401 -0.0387458 0.00933502 -0.0217782 -0.0467892 -0.0532959 -0.0508097 -0.0487615
204 -0.0482547 -0.0633873 -0.0151326 0.055821 -0.016561 -0.03926 0.00995397 -0.0217222 -0.0472906 -0.0540054 -0.0515443 -0.0494905
205 -0.0488913 -0.0642178 -0.0153265 0.0565546 -0.0167824 -0.0397722 0.0105783 -0.0216631 -0.0477887 -0.0547117 -0.0522762 -0.0502173
206 -0.0495275 -0.0650465 -0.0155189 0.057287 -0.0170043 -0.0402827 0.011208 -0.0216009 -0.0482838 -0.0554153 -0.0530061 -0.0509423
207 -0.0501635 -0.0658732 -0.0157097 0.0580183 -0.0172269 -0.0407915 0.0118427 -0.0215362 -0.0487765 -0.0561166 -0.0537339 -0.0516656
208 -0.0507994 -0.0666981 -0.0158988 0.0587488 -0.0174503 -0.0412985 0.0124821 -0.0214688 -0.0492666 -0.0568155 -0.0544601 -0.0523874
209 -0.0514351 -0.0675215 -0.0160864 0.0594783 -0.0176743 -0.0418039 0.0131259 -0.0213993 -0.0497551 -0.057513 -0.0551851 -0.0531082
210 -0.0520709 -0.0683431 -0.0162721 0.060207 -0.0178994 -0.0423076 0.0137739 -0.0213276 -0.0502418 -0.0582087 -0.0559087 -0.0538279
211 -0.0527068 -0.0691627 -0.0164559 0.0609348 -0.0181255 -0.0428093 0.0144254 -0.021254 -0.0507271 -0.058903 -0.0566312 -0.0545465
212 -0.0533428 -0.0699806 -0.0166378 0.0616617 -0.0183525 -0.0433092 0.0150804 -0.0211789 -0.0512111 -0.059596 -0.0573527 -0.0552643
213 -0.053979 -0.0707964 -0.0168175 0.0623877 -0.0185808 -0.0438069 0.0157383 -0.0211023 -0.0516941 -0.0602881 -0.0580735 -0.0559813
214 -0.0546152 -0.0716103 -0.0169951 0.0631127 -0.01881 -0.0443027 0.0163988 -0.0210246 -0.0521764 -0.0609793 -0.0587935 -0.0566977
215 -0.0552515 -0.0724218 -0.0171703 0.0638366 -0.0190406 -0.0447961 0.0170616 -0.0209457 -0.0526577 -0.0616697 -0.0595128 -0.0574132
216 -0.0558877 -0.0732308 -0.0173431 0.0645593 -0.0192723 -0.045287 0.0177261 -0.0208658 -0.0531388 -0.0623592 -0.0602314 -0.0581281
217 -0.0565238 -0.0740372 -0.0175134 0.0652805 -0.0195052 -0.0457753 0.0183918 -0.0207855 -0.0536193 -0.0630479 -0.0609492 -0.0588422
218 -0.0571596 -0.0748406 -0.0176809 0.0660001 -0.0197393 -0.0462608 0.0190586 -0.0207045 -0.0540994 -0.0637361 -0.0616665 -0.0595555
219 -0.0577949 -0.0756407 -0.0178457 0.0667178 -0.0199746 -0.0467432 0.0197255 -0.0206231 -0.0545792 -0.0644234 -0.0623828 -0.0602678
220 -0.0584296 -0.0764371 -0.0180074 0.0674333 -0.0202111 -0.0472223 0.0203927 -0.0205413 -0.0550586 -0.06511 -0.0630983 -0.0609792
221 -0.0590635 -0.0772294 -0.0181658 0.0681464 -0.0204489 -0.0476976 0.0210594 -0.0204593 -0.0555376 -0.0657955 -0.0638127 -0.0616892
222 -0.0596962 -0.0780174 -0.0183212 0.0688568 -0.0206875 -0.0481693 0.0217252 -0.0203771 -0.0560161 -0.0664801 -0.0645259 -0.0623978
223 -0.0603274 -0.0788003 -0.0184729 0.0695639 -0.0209273 -0.0486366 0.0223896 -0.0202952 -0.0564941 -0.0671633 -0.0652376 -0.0631047
224 -0.0609571 -0.079578 -0.0186209 0.0702675 -0.0211681 -0.0490995 0.0230525 -0.0202129 -0.0569712 -0.0678451 -0.0659477 -0.0638098
225 -0.0615845 -0.0803497 -0.0187652 0.0709671 -0.0214096 -0.0495575 0.0237128 -0.0201307 -0.0574478 -0.0685251 -0.0666558 -0.0645126
226 -0.0622096 -0.0811151 -0.0189056 0.0716624 -0.021652 -0.0500104 0.0243706 -0.0200488 -0.0579233 -0.0692033 -0.0673617 -0.065213
227 -0.0628319 -0.0818735 -0.0190417 0.0723527 -0.0218951 -0.0504576 0.0250253 -0.0199668 -0.0583976 -0.0698791 -0.068065 -0.0659106
228 -0.0634509 -0.0826245 -0.0191735 0.0730377 -0.0221387 -0.050899 0.0256761 -0.0198852 -0.0588705 -0.0705525 -0.0687655 -0.0666051
229 -0.0640663 -0.0833673 -0.019301 0.0737168 -0.0223827 -0.0513341 0.026323 -0.0198037 -0.0593418 -0.0712228 -0.0694627 -0.0672958
230 -0.0646776 -0.0841014 -0.0194238 0.0743895 -0.0226269 -0.0517626 0.0269653 -0.0197223 -0.0598111 -0.0718899 -0.0701562 -0.0679828
231 -0.0652843 -0.0848261 -0.0195419 0.0750552 -0.0228712 -0.052184 0.0276025 -0.019641 -0.0602784 -0.0725532 -0.0708458 -0.0686654
232 -0.0658859 -0.085541 -0.0196551 0.0757134 -0.0231154 -0.052598 0.0282342 -0.0195598 -0.0607426 -0.0732125 -0.0715308 -0.0693431
233 -0.066482 -0.0862453 -0.0197634 0.0763636 -0.0233593 -0.0530043 0.02886 -0.0194788 -0.0612045 -0.0738672 -0.0722109 -0.0700157
234 -0.0670719 -0.0869384 -0.0198664 0.0770052 -0.0236028 -0.0534024 0.0294791 -0.019398 -0.0616631 -0.0745171 -0.0728855 -0.0706824
235 -0.0676554 -0.0876197 -0.0199643 0.0776375 -0.0238456 -0.053792 0.0300912 -0.0193173 -0.0621181 -0.0751613 -0.0735544 -0.071343
236 -0.0682316 -0.0882884 -0.0200568 0.07826 -0.0240874 -0.0541726 0.0306958 -0.019237 -0.0625692 -0.0757998 -0.0742168 -0.071997
237 -0.0688002 -0.0889442 -0.020144 0.0788722 -0.0243281 -0.0545441 0.0312926 -0.0191567 -0.0630162 -0.0764316 -0.0748724 -0.0726437
238 -0.0693607 -0.0895862 -0.0202255 0.0794734 -0.0245676 -0.0549058 0.0318808 -0.0190765 -0.0634584 -0.0770567 -0.0755205 -0.0732828
239 -0.0699124 -0.0902138 -0.0203014 0.0800631 -0.0248055 -0.0552576 0.0324601 -0.0189965 -0.0638958 -0.0776742 -0.0761606 -0.0739135
240 -0.0704549 -0.0908266 -0.0203718 0.0806408 -0.0250416 -0.0555992 0.0330299 -0.018917 -0.0643276 -0.0782839 -0.0767923 -0.0745356
241 -0.0709876 -0.0914239 -0.0204363 0.0812057 -0.0252757 -0.0559301 0.0335899 -0.0188373 -0.0647538 -0.0788849 -0.0774151 -0.0751484
242 -0.07151 -0.092005 -0.020495 0.0817575 -0.0255075 -0.05625 0.0341395 -0.018758 -0.0651737 -0.0794769 -0.0780282 -0.0757514
243 -0.0720215 -0.0925696 -0.020548 0.0822956 -0.0257367 -0.0565588 0.0346782 -0.0186789 -0.065587 -0.0800598 -0.0786314 -0.0763441
244 -0.0725218 -0.093117 -0.0205952 0.0828194 -0.0259633 -0.0568561 0.0352056 -0.0186003 -0.0659933 -0.0806322 -0.0792239 -0.0769259
245 -0.0730103 -0.0936468 -0.0206365 0.0833286 -0.0261869 -0.0571417 0.0357212 -0.0185219 -0.0663925 -0.0811943 -0.0798053 -0.0774964
246 -0.0734865 -0.0941586 -0.020672 0.0838226 -0.0264073 -0.0574153 0.0362248 -0.0184439 -0.0667838 -0.0817452 -0.080375 -0.0780551
247 -0.07395 -0.0946518 -0.0207018 0.0843009 -0.0266241 -0.0576768 0.0367157 -0.0183662 -0.0671671 -0.0822846 -0.0809325 -0.0786013
248 -0.0744001 -0.095126 -0.0207259 0.0847631 -0.0268371 -0.0579259 0.0371936 -0.0182891 -0.0675419 -0.0828119 -0.0814774 -0.0791347
249 -0.0748368 -0.095581 -0.0207442 0.0852089 -0.0270463 -0.0581626 0.0376582 -0.0182124 -0.0679079 -0.0833268 -0.0820092 -0.0796548
250 -0.0752593 -0.0960164 -0.0207571 0.0856379 -0.0272511 -0.0583867 0.0381091 -0.0181364 -0.0682646 -0.0838287 -0.0825273 -0.0801611
251 -0.0756675 -0.0964318 -0.0207643 0.0860497 -0.0274516 -0.0585981 0.0385459 -0.0180607 -0.0686118 -0.084317 -0.0830313 -0.0806531
252 -0.0760609 -0.0968271 -0.0207662 0.086444 -0.0276473 -0.0587966 0.0389683 -0.017986 -0.0689491 -0.0847915 -0.0835207 -0.0811305
253 -0.0764391 -0.0972018 -0.0207627 0.0868205 -0.0278382 -0.0589823 0.0393761 -0.0179116 -0.0692763 -0.0852514 -0.0839951 -0.0815927
254 -0.076802 -0.097556 -0.020754 0.087179 -0.028024 -0.059155 0.0397689 -0.0178382 -0.0695927 -0.0856968 -0.084454 -0.0820395
255 -0.077149 -0.0978893 -0.0207402 0.0875192 -0.0282044 -0.0593148 0.0401469 -0.0177656 -0.0698985 -0.0861269 -0.0848971 -0.0824704
256 -0.0774802 -0.0982018 -0.0207216 0.087841 -0.0283793 -0.0594617 0.0405091 -0.0176936 -0.0701931 -0.0865414 -0.0853242 -0.0828852
257 -0.077795 -0.0984932 -0.0206982 0.0881441 -0.0285484 -0.0595957 0.040856 -0.0176225 -0.0704763 -0.0869403 -0.0857347 -0.0832834
258 -0.0780935 -0.0987636 -0.0206701 0.0884285 -0.0287117 -0.0597168 0.0411871 -0.0175523 -0.0707478 -0.0873227 -0.0861282 -0.0836648
259 -0.0783754 -0.0990129 -0.0206375 0.0886941 -0.0288689 -0.0598252 0.0415026 -0.0174829 -0.0710074 -0.087689 -0.0865047 -0.084029
260 -0.0786404 -0.0992411 -0.0206007 0.0889408 -0.0290199 -0.0599209 0.0418021 -0.0174146 -0.0712546 -0.0880382 -0.0868636 -0.0843758
261 -0.0788886 -0.0994483 -0.0205597 0.0891684 -0.0291644 -0.060004 0.0420856 -0.0173475 -0.07149 -0.0883705 -0.0872048 -0.0847051
262 -0.0791198 -0.0996345 -0.0205147 0.0893772 -0.0293025 -0.0600746 0.0423533 -0.017281 -0.0717126 -0.0886854 -0.0875282 -0.0850165
263 -0.079334 -0.0997999 -0.0204659 0.0895669 -0.029434 -0.0601329 0.0426048 -0.0172155 -0.0719225 -0.0889828 -0.0878334 -0.0853101
264 -0.079531 -0.0999444 -0.0204134 0.0897377 -0.0295588 -0.0601789 0.0428407 -0.0171513 -0.0721195 -0.0892626 -0.0881203 -0.0855855
265 -0.079711 -0.100068 -0.0203574 0.0898897 -0.0296768 -0.0602129 0.0430605 -0.0170878 -0.0723036 -0.0895246 -0.0883887 -0.0858425
266 -0.0798738 -0.100172 -0.0202981 0.0900229 -0.0297879 -0.060235 0.0432646 -0.0170254 -0.0724745 -0.0897686 -0.0886386 -0.0860813
267 -0.0800196 -0.100255 -0.0202356 0.0901374 -0.029892 -0.0602454 0.0434532 -0.0169642 -0.072632 -0.0899944 -0.0888697 -0.0863015
268 -0.0801484 -0.100318 -0.0201699 0.0902334 -0.0299893 -0.0602441 0.0436262 -0.0169037 -0.0727764 -0.0902023 -0.0890822 -0.0865033
269 -0.0802604 -0.100362 -0.0201013 0.090311 -0.0300796 -0.0602315 0.0437841 -0.0168442 -0.0729075 -0.0903917 -0.0892759 -0.0866867
270 -0.0803555 -0.100385 -0.0200299 0.0903704 -0.0301628 -0.0602077 0.0439267 -0.0167857 -0.0730247 -0.090563 -0.0894508 -0.0868515
271 -0.080434 -0.10039 -0.0199558 0.0904119 -0.0302391 -0.0601728 0.0440545 -0.0167283 -0.0731289 -0.0907161 -0.0896071 -0.086998
272 -0.080496 -0.100375 -0.0198791 0.0904355 -0.0303084 -0.0601271 0.0441679 -0.0166714 -0.0732195 -0.0908507 -0.0897444 -0.0871259
273 -0.0805416 -0.100341 -0.0197998 0.0904415 -0.0303709 -0.0600706 0.0442668 -0.0166156 -0.0732968 -0.0909673 -0.0898631 -0.0872355
274 -0.0805711 -0.100289 -0.0197181 0.0904302 -0.0304265 -0.0600037 0.0443517 -0.0165605 -0.0733606 -0.0910658 -0.0899632 -0.0873269
275 -0.0805847 -0.100219 -0.0196341 0.0904018 -0.0304753 -0.0599265 0.044423 -0.0165061 -0.0734108 -0.0911462 -0.0900448 -0.0874002
276 -0.0805826 -0.10013 -0.0195478 0.0903565 -0.0305174 -0.0598391 0.0444809 -0.016452 -0.0734478 -0.0912085 -0.090108 -0.0874554
277 -0.0805649 -0.100024 -0.0194593 0.0902945 -0.0305528 -0.0597417 0.0445258 -0.0163986 -0.0734713 -0.0912529 -0.0901529 -0.0874928
278 -0.0805321 -0.0999006 -0.0193685 0.0902163 -0.0305818 -0.0596346 0.0445581 -0.0163461 -0.0734821 -0.0912797 -0.0901798 -0.0875125
279 -0.0804842 -0.0997598 -0.0192756 0.090122 -0.0306043 -0.0595177 0.0445783 -0.0162934 -0.0734793 -0.0912888 -0.0901887 -0.0875147
280 -0.0804215 -0.0996022 -0.0191806 0.0900119 -0.0306205 -0.0593914 0.0445866 -0.0162413 -0.0734638 -0.0912804 -0.0901798 -0.0874997
281 -0.0803444 -0.0994279 -0.0190835 0.0898862 -0.0306304 -0.0592557 0.0445835 -0.0161892 -0.0734349 -0.0912549 -0.0901536 -0.0874674
282 -0.0802531 -0.0992375 -0.0189843 0.0897453 -0.0306344 -0.0591109 0.0445694 -0.0161373 -0.0733934 -0.0912122 -0.0901098 -0.0874183
283 -0.0801479 -0.099031 -0.0188831 0.0895894 -0.0306324 -0.058957 0.0445447 -0.0160852 -0.0733393 -0.0911528 -0.090049 -0.0873526
284 -0.080029 -0.0988087 -0.0187798 0.0894188 -0.0306246 -0.0587943 0.0445101 -0.0160329 -0.0732723 -0.0910766 -0.0899714 -0.0872705
285 -0.0798966 -0.098571 -0.0186743 0.0892338 -0.0306112 -0.0586226 0.0444656 -0.0159805 -0.0731932 -0.0909839 -0.0898771 -0.0871722
286 -0.0797512 -0.098318 -0.0185668 0.0890346 -0.0305922 -0.0584424 0.0444117 -0.0159276 -0.0731014 -0.090875 -0.0897664 -0.087058
287 -0.0795929 -0.0980501 -0.0184572 0.0888215 -0.0305678 -0.0582536 0.044349 -0.0158741 -0.0729977 -0.0907501 -0.0896397 -0.0869282
288 -0.0794219 -0.0977674 -0.0183455 0.0885946 -0.0305382 -0.0580564 0.044278 -0.0158198 -0.0728819 -0.0906094 -0.089497 -0.086783
289 -0.0792387 -0.0974702 -0.0182316 0.0883544 -0.0305036 -0.0578509 0.044199 -0.015765 -0.072754 -0.0904532 -0.0893388 -0.0866225
290 -0.0790433 -0.0971588 -0.0181155 0.088101 -0.0304639 -0.0576372 0.0441124 -0.0157088 -0.0726144 -0.0902817 -0.0891652 -0.0864474
291 -0.078836 -0.0968333 -0.0179973 0.0878347 -0.0304194 -0.0574153 0.0440187 -0.0156518 -0.0724634 -0.090095 -0.0889764 -0.0862575
292 -0.0786173 -0.0964939 -0.0178767 0.0875556 -0.0303703 -0.0571853 0.0439184 -0.0155935 -0.0723006 -0.0898933 -0.0887729 -0.0860533
293 -0.0783869 -0.0961408 -0.0177539 0.0872639 -0.0303165 -0.0569474 0.0438113 -0.0155337 -0.0721266 -0.0896772 -0.0885548 -0.0858351
294 -0.0781456 -0.0957743 -0.0176287 0.0869599 -0.0302584 -0.0567015 0.0436984 -0.0154725 -0.0719413 -0.0894467 -0.0883225 -0.0856029
295 -0.0778931 -0.0953944 -0.0175013 0.0866437 -0.0301959 -0.0564478 0.0435798 -0.0154097 -0.0717451 -0.089202 -0.088076 -0.0853572
296 -0.07763 -0.0950013 -0.0173713 0.0863157 -0.0301293 -0.0561863 0.043456 -0.0153447 -0.0715378 -0.0889434 -0.0878157 -0.0850981
297 -0.0773563 -0.0945952 -0.017239 0.0859758 -0.0300586 -0.0559171 0.043327 -0.0152782 -0.0713197 -0.088671 -0.0875418 -0.0848259
298 -0.0770721 -0.0941763 -0.0171042 0.0856242 -0.029984 -0.0556402 0.0431935 -0.0152095 -0.0710911 -0.0883852 -0.0872548 -0.0845411
299 -0.0767777 -0.0937446 -0.0169668 0.0852612 -0.0299054 -0.0553557 0.0430555 -0.0151385 -0.0708518 -0.088086 -0.0869544 -0.0842434
300 -0.0764733 -0.0933004 -0.0168271 0.0848868 -0.0298231 -0.0550637 0.0429133 -0.0150655 -0.0706023 -0.0877741 -0.0866413 -0.0839334
301 -0.0761589 -0.0928436 -0.0166847 0.0845013 -0.0297371 -0.0547641 0.0427674 -0.0149899 -0.0703424 -0.0874491 -0.0863158 -0.0836112
302 -0.0758348 -0.0923745 -0.0165396 0.0841047 -0.0296476 -0.054457 0.0426177 -0.0149119 -0.0700723 -0.0871115 -0.0859777 -0.0832772
303 -0.0755011 -0.0918931 -0.0163921 0.0836971 -0.0295545 -0.0541426 0.0424643 -0.0148314 -0.0697925 -0.0867616 -0.0856276 -0.0829315
304 -0.0751578 -0.0913997 -0.0162418 0.0832788 -0.029458 -0.0538207 0.0423079 -0.0147482 -0.0695027 -0.0863995 -0.0852654 -0.0825742
305 -0.0748052 -0.0908942 -0.016089 0.0828497 -0.0293581 -0.0534916 0.0421482 -0.014662 -0.0692032 -0.0860253 -0.0848916 -0.0822057
306 -0.0744432 -0.0903767 -0.0159335 0.08241 -0.0292549 -0.0531551 0.0419859 -0.014573 -0.0688942 -0.0856395 -0.0845063 -0.0818261
307 -0.0740721 -0.0898475 -0.0157754 0.0819598 -0.0291484 -0.0528115 0.0418204 -0.0144811 -0.0685754 -0.0852419 -0.0841096 -0.0814354
308 -0.0736919 -0.0893066 -0.0156147 0.0814993 -0.0290386 -0.0524607 0.0416522 -0.0143865 -0.0682476 -0.0848329 -0.0837018 -0.0810343
309 -0.0733027 -0.0887541 -0.0154514 0.0810284 -0.0289256 -0.0521028 0.0414814 -0.0142887 -0.0679105 -0.0844126 -0.0832831 -0.0806224
310 -0.0729045 -0.0881901 -0.0152856 0.0805473 -0.0288095 -0.0517379 0.0413077 -0.0141877 -0.0675642 -0.0839815 -0.0828537 -0.0802004
311 -0.0724976 -0.0876148 -0.0151172 0.0800562 -0.0286902 -0.051366 0.0411317 -0.0140841 -0.0672093 -0.0835395 -0.0824137 -0.0797682
312 -0.0720818 -0.0870282 -0.0149464 0.079555 -0.0285677 -0.0509873 0.0409529 -0.0139771 -0.0668451 -0.0830867 -0.0819635 -0.079326
313 -0.0716573 -0.0864305 -0.0147732 0.0790439 -0.0284421 -0.0506018 0.0407714 -0.013867 -0.0664724 -0.0826235 -0.0815031 -0.0788742
314 -0.0712242 -0.0858218 -0.0145976 0.078523 -0.0283133 -0.0502097 0.0405874 -0.0137537 -0.066091 -0.0821499 -0.0810326 -0.0784126
315 -0.0707826 -0.0852023 -0.0144197 0.0779924 -0.0281814 -0.049811 0.0404007 -0.0136374 -0.0657013 -0.0816662 -0.0805524 -0.0779417
316 -0.0703323 -0.084572 -0.0142397 0.0774522 -0.0280463 -0.0494059 0.040211 -0.013518 -0.0653032 -0.0811725 -0.0800626 -0.0774615
317 -0.0698737 -0.0839313 -0.0140577 0.0769025 -0.027908 -0.0489945 0.0400188 -0.0133957 -0.0648968 -0.080669 -0.0795633 -0.0769722
318 -0.0694066 -0.0832802 -0.0138736 0.0763434 -0.0277665 -0.0485769 0.0398234 -0.0132703 -0.0644826 -0.080156 -0.0790548 -0.076474
319 -0.0689311 -0.0826187 -0.0136876 0.0757749 -0.0276217 -0.0481532 0.0396249 -0.0131421 -0.0640603 -0.0796335 -0.0785371 -0.075967
320 -0.0684474 -0.0819474 -0.0134999 0.0751974 -0.0274738 -0.0477236 0.0394235 -0.0130108 -0.0636303 -0.0791018 -0.0780105 -0.0754514
321 -0.0679554 -0.0812661 -0.0133107 0.0746108 -0.0273224 -0.0472884 0.0392184 -0.012877 -0.0631927 -0.0785609 -0.0774751 -0.0749273
322 -0.0674553 -0.0805751 -0.0131198 0.0740152 -0.0271677 -0.0468475 0.0390101 -0.0127402 -0.0627473 -0.078011 -0.076931 -0.0743949
323 -0.066947 -0.0798747 -0.0129277 0.0734109 -0.0270097 -0.0464012 0.0387982 -0.0126008 -0.0622946 -0.0774523 -0.0763785 -0.0738543
324 -0.0664307 -0.079165 -0.0127344 0.0727979 -0.0268482 -0.0459497 0.0385823 -0.0124593 -0.0618348 -0.0768852 -0.0758177 -0.0733058
325 -0.0659064 -0.0784463 -0.0125399 0.0721763 -0.0266833 -0.0454931 0.0383626 -0.0123151 -0.0613676 -0.0763095 -0.0752487 -0.0727494
326 -0.0653743 -0.0777188 -0.0123445 0.0715465 -0.0265149 -0.0450317 0.0381387 -0.0121685 -0.0608935 -0.0757255 -0.0746715 -0.0721853
327 -0.0648342 -0.0769827 -0.0121485 0.0709085 -0.0263428 -0.0445656 0.0379106 -0.0120199 -0.0604128 -0.0751333 -0.0740868 -0.0716137
328 -0.0642864 -0.0762384 -0.0119519 0.0702624 -0.0261673 -0.0440951 0.0376779 -0.0118691 -0.0599251 -0.0745332 -0.073494 -0.0710346
329 -0.063731 -0.0754859 -0.0117549 0.0696085 -0.025988 -0.0436204 0.0374407 -0.0117167 -0.059431 -0.0739253 -0.0728939 -0.0704482
330 -0.0631679 -0.0747258 -0.0115578 0.0689468 -0.025805 -0.0431418 0.0371985 -0.0115624 -0.0589303 -0.0733096 -0.0722863 -0.0698548
331 -0.0625974 -0.073958 -0.0113606 0.0682777 -0.0256184 -0.0426593 0.0369514 -0.0114065 -0.0584234 -0.0726866 -0.0716715 -0.0692543
332 -0.0620196 -0.0731831 -0.0111635 0.0676013 -0.025428 -0.0421733 0.0366992 -0.011249 -0.0579105 -0.0720562 -0.0710495 -0.068647
333 -0.0614344 -0.0724012 -0.0109668 0.0669178 -0.0252338 -0.041684 0.0364414 -0.0110906 -0.0573912 -0.0714187 -0.0704205 -0.0680331
334 -0.0608422 -0.0716127 -0.0107705 0.0662275 -0.0250358 -0.0411916 0.0361783 -0.0109307 -0.0568666 -0.0707742 -0.0697846 -0.0674125
335 -0.0602429 -0.070818 -0.010575 0.0655304 -0.024834 -0.0406965 0.0359095 -0.0107702 -0.0563359 -0.0701226 -0.0691421 -0.0667855
336 -0.0596368 -0.0700172 -0.0103804 0.064827 -0.0246282 -0.0401988 0.0356349 -0.0106088 -0.0557997 -0.0694646 -0.0684931 -0.0661524
337 -0.059024 -0.0692108 -0.0101867 0.0641174 -0.0244187 -0.0396987 0.0353546 -0.0104466 -0.0552583 -0.0687999 -0.0678376 -0.065513
338 -0.0584047 -0.068399 -0.00999431 0.0634019 -0.0242052 -0.0391967 0.0350684 -0.010284 -0.0547116 -0.0681289 -0.067176 -0.0648679
339 -0.057779 -0.0675822 -0.00980321 0.0626806 -0.0239879 -0.0386927 0.0347757 -0.0101215 -0.0541598 -0.0674518 -0.0665083 -0.0642168
340 -0.0571471 -0.0667609 -0.00961377 0.061954 -0.0237667 -0.0381873 0.034477 -0.00995855 -0.0536033 -0.0667688 -0.0658347 -0.0635601
341 -0.0565092 -0.0659351 -0.0094259 0.0612222 -0.0235417 -0.0376805 0.0341724 -0.00979548 -0.0530419 -0.0660797 -0.0651554 -0.062898
342 -0.0558656 -0.0651055 -0.00923994 0.0604855 -0.0233128 -0.0371727 0.0338615 -0.00963289 -0.0524759 -0.0653853 -0.0644705 -0.0622306
343 -0.0552164 -0.0642724 -0.00905602 0.0597444 -0.0230802 -0.0366642 0.0335442 -0.00947071 -0.0519056 -0.0646853 -0.0637802 -0.061558
344 -0.0545618 -0.063436 -0.00887419 0.0589989 -0.0228438 -0.0361551 0.0332207 -0.00930905 -0.051331 -0.0639801 -0.0630847 -0.0608806
345 -0.0539021 -0.0625968 -0.00869468 0.0582495 -0.0226037 -0.0356458 0.0328908 -0.00914798 -0.0507526 -0.0632697 -0.0623842 -0.0601983
346 -0.0532376 -0.0617551 -0.00851744 0.0574963 -0.0223601 -0.0351363 0.0325548 -0.00898777 -0.0501701 -0.0625546 -0.0616788 -0.0595114
347 -0.0525685 -0.0609113 -0.0083428 0.0567399 -0.0221128 -0.034627 0.0322127 -0.00882863 -0.0495841 -0.0618349 -0.0609688 -0.0588202
348 -0.0518951 -0.0600658 -0.00817069 0.0559804 -0.0218622 -0.0341182 0.0318646 -0.00867038 -0.0489946 -0.0611106 -0.0602543 -0.0581247
349 -0.0512176 -0.059219 -0.0080014 0.0552183 -0.0216081 -0.0336102 0.0315105 -0.00851353 -0.0484019 -0.0603822 -0.0595356 -0.0574254
350 -0.0505364 -0.0583713 -0.00783488 0.0544538 -0.0213508 -0.0331031 0.0311506 -0.00835793 -0.0478061 -0.0596498 -0.0588129 -0.0567223
351 -0.0498517 -0.0575229 -0.00767121 0.0536873 -0.0210902 -0.0325971 0.0307848 -0.008204 -0.0472074 -0.0589137 -0.0580864 -0.0560156
352 -0.0491639 -0.0566743 -0.00751043 0.0529191 -0.0208267 -0.0320924 0.0304137 -0.00805129 -0.046606 -0.0581739 -0.0573563 -0.0553055
353 -0.0484732 -0.0558259 -0.00735269 0.0521496 -0.0205603 -0.0315893 0.0300371 -0.0079005 -0.0460024 -0.057431 -0.0566229 -0.0545924
354 -0.0477801 -0.0549781 -0.007198 0.0513791 -0.0202911 -0.0310881 0.0296552 -0.00775133 -0.0453964 -0.0566851 -0.0558865 -0.0538765
355 -0.0470848 -0.0541313 -0.00704645 0.050608 -0.0200192 -0.0305889 0.0292686 -0.00760415 -0.0447884 -0.0559363 -0.0551471 -0.053158
356 -0.0463877 -0.0532857 -0.00689796 0.0498367 -0.0197449 -0.0300918 0.0288772 -0.00745883 -0.0441789 -0.0551851 -0.0544052 -0.0524371
357 -0.0456892 -0.0524418 -0.00675261 0.0490655 -0.0194683 -0.0295972 0.0284813 -0.00731559 -0.0435677 -0.0544316 -0.0536609 -0.051714
358 -0.0449894 -0.0515999 -0.00661048 0.0482946 -0.0191894 -0.0291052 0.028081 -0.00717451 -0.0429551 -0.0536761 -0.0529147 -0.0509892
359 -0.044289 -0.0507605 -0.00647152 0.0475247 -0.0189087 -0.028616 0.027677 -0.0070355 -0.0423416 -0.052919 -0.0521667 -0.0502629
360 -0.0435882 -0.0499239 -0.00633574 0.046756 -0.0186262 -0.0281298 0.0272693 -0.00689854 -0.0417273 -0.0521605 -0.0514172 -0.0495353
361 -0.0428872 -0.0490903 -0.00620308 0.0459888 -0.0183421 -0.0276467 0.0268582 -0.00676397 -0.0411123 -0.0514009 -0.0506665 -0.0488067
362 -0.0421868 -0.0482604 -0.00607358 0.0452236 -0.0180566 -0.027167 0.026444 -0.00663175 -0.0404971 -0.0506406 -0.0499151 -0.0480775
363 -0.041487 -0.0474342 -0.00594717 0.0444606 -0.0177699 -0.0266907 0.0260271 -0.0065015 -0.0398819 -0.0498798 -0.049163 -0.0473479
364 -0.0407883 -0.0466122 -0.00582383 0.0437003 -0.0174823 -0.026218 0.0256078 -0.0063739 -0.0392669 -0.0491188 -0.0484106 -0.0466182
365 -0.0400911 -0.0457947 -0.00570358 0.0429429 -0.0171938 -0.0257492 0.0251865 -0.00624852 -0.0386523 -0.0483581 -0.0476584 -0.0458887
366 -0.0393958 -0.044982 -0.00558622 0.0421889 -0.0169048 -0.0252841 0.0247635 -0.00612547 -0.0380386 -0.0475977 -0.0469065 -0.0451598
367 -0.0387027 -0.0441746 -0.00547192 0.0414387 -0.0166154 -0.0248233 0.0243392 -0.00600479 -0.0374258 -0.0468382 -0.0461554 -0.0444318
368 -0.0380122 -0.0433727 -0.00536044 0.0406924 -0.0163259 -0.0243665 0.0239137 -0.00588645 -0.0368142 -0.0460799 -0.0454054 -0.043705
369 -0.0373247 -0.0425765 -0.0052518 0.0399506 -0.0160365 -0.0239142 0.0234878 -0.00577041 -0.0362043 -0.0453231 -0.0446568 -0.0429798
370 -0.0366406 -0.0417865 -0.00514592 0.0392135 -0.0157473 -0.0234662 0.0230614 -0.00565684 -0.0355961 -0.0445681 -0.0439098 -0.0422563
371 -0.0359601 -0.0410029 -0.00504284 0.0384815 -0.0154586 -0.0230229 0.0226351 -0.00554563 -0.0349902 -0.0438152 -0.043165 -0.0415351
372 -0.0352837 -0.040226 -0.00494228 0.0377548 -0.0151707 -0.0225841 0.0222092 -0.0054366 -0.0343865 -0.0430649 -0.0424226 -0.0408164
373 -0.0346117 -0.0394561 -0.00484432 0.0370339 -0.0148837 -0.0221502 0.021784 -0.0053299 -0.0337855 -0.0423173 -0.0416831 -0.0401006
374 -0.0339445 -0.0386934 -0.00474884 0.036319 -0.0145978 -0.0217211 0.0213599 -0.00522561 -0.0331874 -0.0415731 -0.0409466 -0.0393879
375 -0.0332824 -0.0379382 -0.00465573 0.0356103 -0.0143134 -0.021297 0.0209373 -0.00512349 -0.0325924 -0.0408324 -0.0402136 -0.0386788
376 -0.0326258 -0.0371908 -0.00456505 0.0349083 -0.0140304 -0.0208779 0.0205167 -0.00502341 -0.032001 -0.0400955 -0.0394845 -0.0379736
377 -0.0319749 -0.0364514 -0.00447645 0.0342132 -0.0137492 -0.0204639 0.0200979 -0.00492562 -0.0314132 -0.0393629 -0.0387595 -0.0372725
378 -0.0313301 -0.0357203 -0.00439019 0.0335252 -0.0134699 -0.0200552 0.0196817 -0.00482996 -0.0308294 -0.0386348 -0.038039 -0.0365759
379 -0.0306916 -0.0349976 -0.00430599 0.0328446 -0.0131928 -0.0196518 0.0192681 -0.0047364 -0.0302498 -0.0379116 -0.0373232 -0.0358842
380 -0.0300597 -0.0342836 -0.00422384 0.0321717 -0.012918 -0.0192537 0.0188576 -0.00464489 -0.0296748 -0.0371935 -0.0366127 -0.0351976
381 -0.0294349 -0.0335785 -0.00414359 0.0315067 -0.0126456 -0.018861 0.0184505 -0.00455551 -0.0291044 -0.036481 -0.0359076 -0.0345164
382 -0.0288171 -0.0328824 -0.0040653 0.0308498 -0.0123759 -0.0184739 0.018047 -0.0044679 -0.028539 -0.0357744 -0.0352084 -0.033841
383 -0.0282069 -0.0321956 -0.00398878 0.0302012 -0.012109 -0.0180922 0.0176474 -0.00438236 -0.0279788 -0.0350739 -0.0345153 -0.0331717
384 -0.0276043 -0.0315183 -0.00391399 0.0295613 -0.0118452 -0.0177162 0.0172518 -0.00429879 -0.0274241 -0.0343799 -0.0338286 -0.0325087
385 -0.0270096 -0.0308505 -0.00384089 0.0289301 -0.0115844 -0.0173457 0.0168607 -0.0042169 -0.0268749 -0.0336926 -0.0331486 -0.0318524
386 -0.0264231 -0.0301925 -0.00376936 0.0283078 -0.0113269 -0.0169809 0.0164743 -0.00413693 -0.0263317 -0.0330123 -0.0324755 -0.0312028
387 -0.0258449 -0.0295444 -0.00369953 0.0276946 -0.0110727 -0.016622 0.0160926 -0.0040588 -0.0257947 -0.0323394 -0.0318099 -0.0305606
388 -0.0252751 -0.0289061 -0.00363098 0.0270906 -0.0108221 -0.0162685 0.0157161 -0.00398227 -0.0252637 -0.031674 -0.0311516 -0.0299256
389 -0.0247141 -0.0282781 -0.00356399 0.0264961 -0.0105751 -0.015921 0.0153447 -0.00390748 -0.0247394 -0.0310164 -0.0305012 -0.0292983
390 -0.0241619 -0.0276603 -0.00349841 0.0259111 -0.0103317 -0.0155794 0.0149787 -0.00383436 -0.0242217 -0.0303669 -0.0298589 -0.028679
391 -0.0236186 -0.0270526 -0.00343402 0.0253356 -0.0100923 -0.0152433 0.0146184 -0.00376273 -0.0237107 -0.0297256 -0.0292247 -0.0280676
392 -0.0230845 -0.0264554 -0.00337097 0.02477 -0.00985675 -0.0149132 0.0142638 -0.00369268 -0.0232067 -0.0290929 -0.028599 -0.0274646
393 -0.0225595 -0.0258687 -0.00330927 0.0242141 -0.00962511 -0.014589 0.0139149 -0.0036244 -0.02271 -0.0284689 -0.0279821 -0.0268701
394 -0.0220438 -0.0252924 -0.00324862 0.0236681 -0.00939759 -0.0142705 0.0135721 -0.00355739 -0.0222204 -0.0278537 -0.0273739 -0.0262841
395 -0.0215375 -0.0247266 -0.0031891 0.0231321 -0.00917421 -0.0139579 0.0132355 -0.00349173 -0.0217382 -0.0272476 -0.0267748 -0.0257071
396 -0.0210406 -0.0241716 -0.00313092 0.0226061 -0.00895485 -0.0136512 0.0129048 -0.00342775 -0.0212636 -0.0266508 -0.026185 -0.0251391
397 -0.0205533 -0.0236269 -0.00307365 0.0220901 -0.00873982 -0.0133503 0.0125804 -0.00336511 -0.0207966 -0.0260633 -0.0256045 -0.0245801
398 -0.0200754 -0.0230928 -0.00301737 0.0215841 -0.00852903 -0.0130551 0.0122625 -0.00330364 -0.0203371 -0.0254852 -0.0250334 -0.0240302
399 -0.0196072 -0.0225695 -0.00296229 0.0210883 -0.00832244 -0.0127659 0.0119508 -0.00324369 -0.0198857 -0.0249169 -0.024472 -0.0234899
400 -0.0191485 -0.0220566 -0.00290807 0.0206025 -0.00812021 -0.0124823 0.0116456 -0.00318494 -0.0194421 -0.0243583 -0.0239202 -0.0229589
401 -0.0186994 -0.0215543 -0.00285492 0.0201268 -0.00792224 -0.0122046 0.0113468 -0.00312747 -0.0190064 -0.0238095 -0.0233784 -0.0224375
402 -0.0182598 -0.0210624 -0.00280261 0.0196611 -0.00772859 -0.0119325 0.0110544 -0.00307121 -0.0185785 -0.0232706 -0.0228462 -0.0219256
403 -0.0178298 -0.0205812 -0.00275138 0.0192055 -0.0075392 -0.0116663 0.0107685 -0.00301617 -0.0181589 -0.0227418 -0.0223241 -0.0214234
404 -0.0174093 -0.0201103 -0.00270098 0.0187598 -0.00735416 -0.0114056 0.0104891 -0.00296238 -0.0177472 -0.0222229 -0.021812 -0.0209309
405 -0.0169982 -0.0196496 -0.00265138 0.0183239 -0.00717342 -0.0111505 0.010216 -0.00290972 -0.0173437 -0.021714 -0.0213098 -0.0204481
406 -0.0165966 -0.0191994 -0.00260284 0.017898 -0.00699688 -0.0109011 0.00994961 -0.00285809 -0.0169482 -0.0212153 -0.0208177 -0.019975
407 -0.0162042 -0.0187593 -0.00255506 0.0174817 -0.00682458 -0.0106572 0.0096893 -0.00280769 -0.0165608 -0.0207266 -0.0203356 -0.0195116
408 -0.0158212 -0.0183294 -0.00250821 0.0170753 -0.00665648 -0.0104188 0.00943537 -0.00275837 -0.0161816 -0.0202481 -0.0198637 -0.019058
409 -0.0154473 -0.0179094 -0.00246208 0.0166784 -0.00649263 -0.0101858 0.00918786 -0.00271016 -0.0158103 -0.0197796 -0.0194017 -0.0186141
410 -0.0150825 -0.0174994 -0.00241693 0.016291 -0.00633279 -0.00995818 0.00894657 -0.00266288 -0.0154471 -0.0193212 -0.0189497 -0.0181798
411 -0.0147266 -0.0170992 -0.00237257 0.0159129 -0.00617702 -0.00973588 0.00871124 -0.00261677 -0.0150918 -0.0188728 -0.0185076 -0.0177552
412 -0.0143797 -0.0167087 -0.00232902 0.0155442 -0.00602534 -0.00951887 0.00848223 -0.00257154 -0.0147446 -0.0184343 -0.0180756 -0.0173401
413 -0.0140416 -0.0163278 -0.00228627 0.0151847 -0.00587765 -0.00930705 0.00825913 -0.00252746 -0.0144053 -0.0180059 -0.0176533 -0.0169346
414 -0.013712 -0.0159563 -0.00224432 0.0148342 -0.00573384 -0.00910031 0.00804195 -0.00248426 -0.0140738 -0.0175872 -0.0172408 -0.0165385
415 -0.013391 -0.015594 -0.00220306 0.0144925 -0.00559395 -0.00889854 0.00783087 -0.0024419 -0.01375 -0.0171782 -0.0168379 -0.0161517
416 -0.0130783 -0.015241 -0.00216277 0.0141597 -0.00545775 -0.00870191 0.00762515 -0.00240072 -0.0134341 -0.016779 -0.0164448 -0.0157743
417 -0.0127739 -0.0148972 -0.00212327 0.0138355 -0.00532531 -0.00851021 0.00742523 -0.00236047 -0.0131257 -0.0163895 -0.0160611 -0.015406
418 -0.0124777 -0.0145621 -0.00208438 0.0135199 -0.00519666 -0.00832322 0.00723104 -0.00232107 -0.0128249 -0.0160093 -0.0156868 -0.0150468
419 -0.0121894 -0.0142357 -0.00204635 0.0132125 -0.0050715 -0.00814103 0.00704231 -0.00228242 -0.0125314 -0.0156385 -0.0153218 -0.0146965
420 -0.0119088 -0.0139179 -0.00200909 0.0129133 -0.00494985 -0.00796348 0.00685867 -0.00224486 -0.0122454 -0.0152769 -0.014966 -0.0143551
421 -0.011636 -0.0136085 -0.00197256 0.0126222 -0.0048317 -0.00779054 0.0066805 -0.00220798 -0.0119666 -0.0149245 -0.0146192 -0.0140223
422 -0.0113708 -0.0133075 -0.00193675 0.0123391 -0.00471701 -0.00762213 0.00650762 -0.00217204 -0.0116949 -0.0145811 -0.0142814 -0.0136983
423 -0.0111128 -0.0130147 -0.00190183 0.0120637 -0.0046055 -0.00745824 0.0063395 -0.00213704 -0.0114304 -0.0142467 -0.0139523 -0.0133826
424 -0.0108621 -0.0127296 -0.00186751 0.0117959 -0.0044973 -0.00729857 0.00617625 -0.00210283 -0.0111727 -0.0139209 -0.0136319 -0.0130753
425 -0.0106185 -0.0124524 -0.00183391 0.0115354 -0.00439228 -0.00714314 0.00601822 -0.00206922 -0.0109218 -0.0136036 -0.0133199 -0.0127761
426 -0.0103817 -0.0121828 -0.00180111 0.0112822 -0.00429029 -0.00699196 0.00586474 -0.00203648 -0.0106775 -0.0132948 -0.0130163 -0.0124849
427 -0.0101517 -0.0119207 -0.00176903 0.0110362 -0.00419134 -0.00684488 0.00571555 -0.0020047 -0.0104399 -0.0129944 -0.012721 -0.0122017
428 -0.00992838 -0.011666 -0.00173763 0.0107972 -0.00409538 -0.00670182 0.00557115 -0.00197354 -0.0102088 -0.0127021 -0.0124337 -0.0119262
429 -0.00971149 -0.0114184 -0.00170692 0.0105649 -0.00400228 -0.00656267 0.00543108 -0.0019432 -0.00998389 -0.0124178 -0.0121542 -0.0116583
430 -0.00950073 -0.0111776 -0.00167687 0.0103392 -0.00391193 -0.00642724 0.00529528 -0.00191341 -0.00976512 -0.0121411 -0.0118824 -0.0113977
431 -0.00929609 -0.0109436 -0.00164752 0.0101198 -0.00382428 -0.00629556 0.00516367 -0.00188443 -0.00955243 -0.0118722 -0.0116182 -0.0111444
432 -0.00909755 -0.0107164 -0.00161885 0.00990698 -0.00373935 -0.00616763 0.00503594 -0.00185628 -0.00934578 -0.0116109 -0.0113614 -0.0108983
433 -0.00890482 -0.0104958 -0.00159095 0.0097003 -0.00365694 -0.00604336 0.00491211 -0.00182881 -0.00914494 -0.0113569 -0.011112 -0.0106592
434 -0.00871781 -0.0102814 -0.0015636 0.0094996 -0.0035771 -0.0059225 0.00479224 -0.00180193 -0.00894975 -0.0111101 -0.0108695 -0.0104269
435 -0.00853628 -0.0100732 -0.00153693 0.00930474 -0.00349968 -0.00580507 0.0046763 -0.00177566 -0.00876006 -0.0108703 -0.010634 -0.0102012
436 -0.00835993 -0.00987074 -0.0015108 0.00911534 -0.00342456 -0.00569077 0.00456372 -0.00175 -0.00857562 -0.0106371 -0.0104051 -0.00998177
437 -0.0081889 -0.00967415 -0.00148525 0.00893152 -0.00335182 -0.0055797 0.00445461 -0.00172502 -0.00839648 -0.0104106 -0.0101828 -0.00976874
438 -0.00802309 -0.00948362 -0.00146054 0.00875335 -0.00328127 -0.00547208 0.00434902 -0.00170074 -0.00822274 -0.010191 -0.00996713 -0.00956208
439 -0.00786222 -0.0092986 -0.00143638 0.00858041 -0.00321292 -0.00536749 0.0042467 -0.00167714 -0.00805407 -0.00997767 -0.00975776 -0.00936146
440 -0.00770604 -0.00911879 -0.00141275 0.00841241 -0.00314665 -0.00526577 0.00414746 -0.00165409 -0.00789014 -0.00977039 -0.00955434 -0.00916656
441 -0.00755448 -0.00894427 -0.00138979 0.00824937 -0.00308235 -0.00516703 0.00405156 -0.0016315 -0.00773097 -0.00956921 -0.00935691 -0.00897739
442 -0.0074075 -0.00877466 -0.00136717 0.00809108 -0.00302016 -0.00507092 0.00395883 -0.00160931 -0.00757625 -0.00937373 -0.00916512 -0.00879363
443 -0.00726485 -0.00861009 -0.00134524 0.00793747 -0.00295981 -0.00497767 0.00386866 -0.00158787 -0.00742623 -0.00918412 -0.00897908 -0.00861539
444 -0.00712656 -0.00845046 -0.0013239 0.00778851 -0.00290133 -0.00488718 0.00378144 -0.00156707 -0.0072807 -0.00900015 -0.00879859 -0.00844249
445 -0.00699245 -0.00829553 -0.00130308 0.00764399 -0.00284468 -0.00479931 0.00369716 -0.00154667 -0.00713941 -0.00882163 -0.00862346 -0.0082747
446 -0.00686226 -0.0081451 -0.00128284 0.00750368 -0.00278971 -0.00471397 0.00361509 -0.00152696 -0.00700233 -0.00864836 -0.0084535 -0.00811186
447 -0.00673597 -0.00799916 -0.00126319 0.00736756 -0.00273639 -0.00463117 0.00353596 -0.00150749 -0.00686914 -0.00848015 -0.00828855 -0.00795387
448 -0.00661346 -0.00785721 -0.00124375 0.00723533 -0.00268485 -0.00455048 0.00345945 -0.00148853 -0.00673994 -0.00831691 -0.00812843 -0.00780045
449 -0.00649459 -0.00771938 -0.00122478 0.00710698 -0.0026349 -0.00447208 0.00338534 -0.00147005 -0.0066145 -0.00815845 -0.00797304 -0.0076516
450 -0.00637919 -0.0075858 -0.00120661 0.00698249 -0.00258629 -0.0043962 0.00331326 -0.00145208 -0.00649273 -0.00800473 -0.00782233 -0.00750725
451 -0.00626723 -0.00745607 -0.00118885 0.00686165 -0.00253919 -0.00432246 0.00324346 -0.00143454 -0.00637463 -0.00785559 -0.00767611 -0.00736717
452 -0.00615876 -0.00733011 -0.00117135 0.00674444 -0.0024937 -0.00425073 0.00317601 -0.00141755 -0.00626011 -0.00771093 -0.00753427 -0.00723127
453 -0.00605352 -0.00720806 -0.00115454 0.00663079 -0.00244949 -0.0041813 0.00311073 -0.00140106 -0.0061491 -0.00757074 -0.00739681 -0.00709958
454 -0.00595131 -0.00708939 -0.00113809 0.00652035 -0.00240661 -0.00411374 0.00304757 -0.00138475 -0.00604114 -0.00743451 -0.00726328 -0.00697168
455 -0.00585201 -0.00697395 -0.00112193 0.00641298 -0.00236504 -0.00404794 0.00298614 -0.00136874 -0.00593624 -0.00730219 -0.00713358 -0.00684744
456 -0.00575558 -0.00686166 -0.00110608 0.00630862 -0.00232475 -0.00398387 0.00292675 -0.00135326 -0.00583447 -0.00717371 -0.00700764 -0.00672676
457 -0.00566202 -0.00675286 -0.00109085 0.00620744 -0.00228558 -0.00392186 0.00286914 -0.00133813 -0.00573567 -0.00704915 -0.00688556 -0.00660984
458 -0.00557135 -0.00664738 -0.00107604 0.00610937 -0.00224766 -0.00386171 0.00281358 -0.00132345 -0.00564004 -0.00692847 -0.00676728 -0.0064965
459 -0.00548336 -0.006545 -0.00106164 0.00601418 -0.00221086 -0.00380332 0.00275959 -0.00130915 -0.00554722 -0.00681137 -0.00665251 -0.00638655
460 -0.00539784 -0.00644543 -0.00104759 0.00592164 -0.00217513 -0.00374651 0.00270699 -0.00129522 -0.00545705 -0.00669762 -0.00654102 -0.00627974
461 -0.00531469 -0.00634852 -0.00103383 0.00583161 -0.00214043 -0.00369117 0.00265604 -0.00128166 -0.00536937 -0.00658711 -0.00643271 -0.00617597
462 -0.00523396 -0.0062543 -0.00102034 0.00574413 -0.00210681 -0.00363732 0.00260685 -0.00126831 -0.0052843 -0.00647984 -0.0063276 -0.00607526
463 -0.0051555 -0.00616267 -0.00100717 0.00565909 -0.00207416 -0.00358492 0.00255961 -0.00125494 -0.00520146 -0.00637554 -0.00622543 -0.00597738
464 -0.00507931 -0.00607375 -0.00099444 0.00557653 -0.00204244 -0.0035341 0.00251368 -0.00124195 -0.00512111 -0.00627439 -0.00612636 -0.00588247
465 -0.00500536 -0.00598741 -0.000982045 0.00549638 -0.00201166 -0.00348473 0.00246863 -0.00122971 -0.00504337 -0.00617636 -0.00603025 -0.00579036
466 -0.00493346 -0.00590345 -0.000969981 0.00541846 -0.00198174 -0.00343671 0.00242483 -0.00121777 -0.00496766 -0.00608102 -0.00593685 -0.00570087
467 -0.00486368 -0.00582181 -0.000958129 0.00534274 -0.00195277 -0.00338997 0.00238249 -0.00120618 -0.00489437 -0.00598859 -0.00584624 -0.00561403
468 -0.0047957 -0.00574256 -0.00094686 0.00526913 -0.00192442 -0.00334471 0.00234173 -0.00119446 -0.00482295 -0.00589876 -0.00575826 -0.00552973
469 -0.00472957 -0.00566544 -0.00093587 0.00519751 -0.00189685 -0.00330065 0.00230225 -0.00118294 -0.00475348 -0.00581146 -0.00567274 -0.00544778
470 -0.00466534 -0.00559006 -0.00092472 0.0051277 -0.00187031 -0.00325739 0.0022638 -0.00117184 -0.004686 -0.00572651 -0.00558949 -0.00536799
471 -0.00460285 -0.00551651 -0.000913654 0.00505968 -0.0018446 -0.00321508 0.00222663 -0.00116087 -0.00462014 -0.00564371 -0.00550842 -0.0052903
472 -0.00454201 -0.00544517 -0.000903165 0.00499359 -0.00181942 -0.00317417 0.00219033 -0.00115025 -0.00455632 -0.00556347 -0.00542981 -0.00521495
473 -0.00448282 -0.00537617 -0.000893349 0.0049295 -0.00179474 -0.00313476 0.00215491 -0.00114003 -0.00449451 -0.00548574 -0.00535364 -0.00514195
474 -0.00442528 -0.00530896 -0.000883681 0.00486712 -0.0017708 -0.00309632 0.00212068 -0.00112995 -0.00443435 -0.00541014 -0.00527959 -0.00507097
475 -0.00436935 -0.00524338 -0.000874027 0.00480636 -0.00174766 -0.0030587 0.00208742 -0.00112016 -0.00437589 -0.00533663 -0.00520755 -0.0050019
476 -0.00431488 -0.00517941 -0.000864527 0.00474714 -0.00172518 -0.00302197 0.00205513 -0.00111056 -0.00431893 -0.00526505 -0.0051374 -0.00493465
477 -0.00426179 -0.00511699 -0.000855196 0.00468939 -0.0017033 -0.00298609 0.00202404 -0.0011009 -0.00426328 -0.00519526 -0.00506908 -0.00486917
478 -0.00421002 -0.00505615 -0.000846138 0.00463308 -0.00168194 -0.00295115 0.00199385 -0.00109144 -0.00420917 -0.00512736 -0.00500258 -0.00480542
479 -0.00415946 -0.00499691 -0.000837443 0.00457819 -0.00166101 -0.00291718 0.0019642 -0.00108232 -0.00415657 -0.00506136 -0.00493792 -0.00474341
480 -0.00411021 -0.00493901 -0.000828807 0.00452461 -0.0016407 -0.00288391 0.00193534 -0.00107328 -0.00410524 -0.00499704 -0.00487493 -0.00468302
481 -0.00406242 -0.00488277 -0.000820349 0.0044726 -0.00162104 -0.00285156 0.00190737 -0.00106461 -0.00405549 -0.00493459 -0.00481374 -0.00462434
482 -0.00401589 -0.00482817 -0.000812279 0.00442203 -0.00160181 -0.00282022 0.00188016 -0.00105614 -0.00400712 -0.0048739 -0.00475428 -0.00456732
483 -0.00397055 -0.00477506 -0.00080451 0.00437281 -0.00158302 -0.00278979 0.00185381 -0.0010478 -0.00395998 -0.0048149 -0.00469651 -0.00451194
484 -0.00392616 -0.00472288 -0.000796722 0.00432452 -0.00156472 -0.0027598 0.00182794 -0.00103974 -0.00391402 -0.00475724 -0.00463999 -0.00445772
485 -0.00388271 -0.0046717 -0.000788993 0.0042772 -0.00154686 -0.00273035 0.00180275 -0.00103177 -0.00386911 -0.00470091 -0.00458478 -0.00440474
486 -0.00384038 -0.00462182 -0.000781446 0.0042311 -0.00152947 -0.00270164 0.0017785 -0.00102365 -0.00382517 -0.004646 -0.00453103 -0.00435321
487 -0.00379921 -0.00457319 -0.000773985 0.0041862 -0.00151261 -0.00267359 0.00175505 -0.00101563 -0.00378233 -0.00459248 -0.00447865 -0.00430297
488 -0.003759 -0.00452592 -0.000766919 0.00414246 -0.00149604 -0.00264642 0.00173211 -0.00100791 -0.00374077 -0.00454049 -0.00442772 -0.00425411
489 -0.00371971 -0.00447964 -0.000759923 0.00409968 -0.0014799 -0.00261978 0.00170971 -0.00100043 -0.00370019 -0.00448973 -0.00437801 -0.00420643
490 -0.00368127 -0.00443443 -0.000753159 0.00405785 -0.00146406 -0.00259379 0.00168768 -0.00099313 -0.00366051 -0.00444019 -0.00432949 -0.00415989
491 -0.00364371 -0.00439016 -0.000746452 0.00401694 -0.00144863 -0.00256831 0.00166598 -0.000986228 -0.00362204 -0.00439197 -0.00428219 -0.00411447
492 -0.00360708 -0.00434692 -0.000739836 0.003977 -0.00143362 -0.00254338 0.00164487 -0.000979409 -0.00358454 -0.00434495 -0.00423608 -0.00407019
493 -0.00357134 -0.00430479 -0.00073345 0.00393807 -0.00141895 -0.00251912 0.00162478 -0.000972281 -0.00354767 -0.00429901 -0.00419111 -0.00402707
494 -0.00353634 -0.00426367 -0.000727327 0.00390001 -0.00140451 -0.0024955 0.00160524 -0.00096514 -0.00351148 -0.00425404 -0.00414713 -0.00398491
495 -0.00350207 -0.00422331 -0.00072124 0.00386269 -0.00139042 -0.00247228 0.00158609 -0.000958344 -0.00347634 -0.0042102 -0.00410419 -0.00394368
496 -0.00346859 -0.00418376 -0.000715169 0.00382617 -0.00137671 -0.00244946 0.0015674 -0.000951807 -0.00344217 -0.00416749 -0.00406232 -0.00390348
497 -0.00343576 -0.00414472 -0.00070896 0.00379024 -0.0013634 -0.00242684 0.00154912 -0.000945273 -0.00340849 -0.00412546 -0.00402115 -0.00386394
498 -0.00340348 -0.00410637 -0.000702887 0.00375493 -0.0013503 -0.00240463 0.00153099 -0.000938885 -0.00337537 -0.00408418 -0.00398073 -0.00382514
499 -0.00337198 -0.00406926 -0.000697278 0.00372062 -0.00133735 -0.00238327 0.00151307 -0.000932704 -0.00334322 -0.00404415 -0.00394151 -0.0037875
500 -0.00334138 -0.00403336 -0.000691988 0.00368737 -0.00132469 -0.00236268 0.00149594 -0.000926515 -0.0033121 -0.00400544 -0.00390359 -0.0037511
501 -0.00331138 -0.00399809 -0.000686711 0.00365473 -0.00131233 -0.0023424 0.00147942 -0.00092042 -0.00328164 -0.0039675 -0.00386641 -0.0037154
502 -0.00328186 -0.00396321 -0.00068135 0.00362253 -0.00130025 -0.00232228 0.00146326 -0.000914463 -0.00325165 -0.00393009 -0.00382974 -0.00368018
503 -0.00325286 -0.00392886 -0.000675991 0.00359086 -0.00128844 -0.00230242 0.00144732 -0.000908585 -0.00322208 -0.00389333 -0.00379374 -0.00364561
504 -0.00322452 -0.00389515 -0.000670627 0.00355983 -0.00127695 -0.00228289 0.00143172 -0.000902739 -0.00319315 -0.00385741 -0.00375858 -0.00361185
505 -0.00319671 -0.00386221 -0.000665499 0.00352946 -0.00126561 -0.00226385 0.00141648 -0.000896946 -0.00316494 -0.00382237 -0.00372426 -0.0035789
506 -0.00316942 -0.00382994 -0.000660526 0.00349968 -0.00125445 -0.00224523 0.00140141 -0.000891371 -0.0031374 -0.00378807 -0.00369065 -0.0035466
507 -0.00314266 -0.00379824 -0.000655579 0.00347045 -0.00124354 -0.00222691 0.0013869 -0.000885701 -0.00311021 -0.00375435 -0.00365762 -0.00351488
508 -0.00311629 -0.0037671 -0.000650812 0.0034417 -0.00123274 -0.00220896 0.00137269 -0.000880107 -0.00308351 -0.00372127 -0.00362521 -0.00348376
509 -0.00309049 -0.00373656 -0.000646069 0.00341353 -0.00122221 -0.00219131 0.00135874 -0.000874602 -0.00305736 -0.00368889 -0.00359353 -0.00345333
510 -0.0030653 -0.00370656 -0.000641256 0.00338593 -0.00121202 -0.00217391 0.0013451 -0.000869382 -0.003032 -0.00365733 -0.00356258 -0.00342358
511 -0.00304054 -0.00367726 -0.000636729 0.0033589 -0.0012019 -0.002157 0.00133151 -0.000864398 -0.00300729 -0.00362653 -0.00353235 -0.00339451
512 -0.00301618 -0.00364853 -0.000632349 0.00333236 -0.00119192 -0.00214044 0.00131823 -0.000859293 -0.00298283 -0.0035962 -0.00350264 -0.00336597
513 -0.00299221 -0.00362029 -0.000628083 0.00330625 -0.00118206 -0.00212419 0.00130543 -0.000854043 -0.00295855 -0.0035663 -0.00347342 -0.00333793
514 -0.00296861 -0.00359229 -0.00062368 0.00328045 -0.00117247 -0.00210799 0.00129277 -0.000848888 -0.0029347 -0.00353683 -0.00344458 -0.00331022
515 -0.00294549 -0.0035647 -0.000619214 0.00325509 -0.00116314 -0.00209196 0.00128049 -0.000843865 -0.00291141 -0.00350795 -0.00341626 -0.00328299
516 -0.00292278 -0.00353771 -0.000614926 0.00323025 -0.00115393 -0.00207632 0.0012685 -0.000839064 -0.00288882 -0.00347984 -0.00338866 -0.00325643
517 -0.00290038 -0.00351106 -0.000610683 0.00320572 -0.00114485 -0.00206087 0.00125664 -0.000834259 -0.0028665 -0.00345215 -0.0033615 -0.00323032
518 -0.00287827 -0.00348484 -0.00060657 0.00318155 -0.00113585 -0.0020457 0.00124507 -0.000829213 -0.00284422 -0.00342478 -0.00333475 -0.00320463
519 -0.00285655 -0.00345902 -0.000602467 0.00315778 -0.00112704 -0.00203074 0.00123367 -0.000824258 -0.00282234 -0.00339786 -0.00330843 -0.00317936
520 -0.00283529 -0.00343382 -0.000598528 0.00313455 -0.00111838 -0.00201617 0.00122226 -0.000819623 -0.00280104 -0.00337154 -0.00328267 -0.00315459
521 -0.00281433 -0.00340901 -0.000594685 0.00311167 -0.00110982 -0.00200185 0.00121088 -0.000815275 -0.00278027 -0.00334576 -0.00325736 -0.00313024
522 -0.00279375 -0.00338467 -0.000590916 0.00308921 -0.00110142 -0.00198779 0.00119985 -0.000811062 -0.00276002 -0.00332059 -0.00323263 -0.00310644
523 -0.00277352 -0.00336069 -0.000587168 0.00306711 -0.00109318 -0.00197393 0.00118935 -0.000806579 -0.00273993 -0.00329577 -0.00320831 -0.00308306
524 -0.00275352 -0.00333686 -0.000583345 0.00304519 -0.00108509 -0.0019601 0.0011791 -0.000801854 -0.0027198 -0.00327108 -0.00318418 -0.00305988
525 -0.00273382 -0.00331326 -0.000579443 0.00302354 -0.00107719 -0.00194635 0.00116898 -0.000797273 -0.00270004 -0.00324673 -0.00316035 -0.00303696
526 -0.00271439 -0.00329003 -0.00057564 0.00300221 -0.00106937 -0.00193283 0.00115902 -0.000792747 -0.00268062 -0.0032228 -0.00313692 -0.00301443
527 -0.00269516 -0.00326733 -0.000572169 0.00298125 -0.0010615 -0.00191975 0.00114906 -0.000788431 -0.00266166 -0.00319943 -0.00311401 -0.0029924
528 -0.0026762 -0.00324502 -0.000568817 0.00296061 -0.00105369 -0.00190692 0.00113902 -0.000784402 -0.00264312 -0.00317652 -0.00309153 -0.00297077
529 -0.00265757 -0.003223 -0.000565436 0.00294028 -0.00104607 -0.00189422 0.00112925 -0.000780286 -0.00262474 -0.0031539 -0.00306937 -0.00294947
530 -0.00263916 -0.003201 -0.000561839 0.00292008 -0.00103866 -0.00188142 0.00111979 -0.00077599 -0.00260637 -0.00313136 -0.00304733 -0.00292827
531 -0.00262107 -0.00317917 -0.000558102 0.00290012 -0.00103148 -0.00186864 0.00111041 -0.00077189 -0.00258835 -0.0031091 -0.0030255 -0.00290726
532 -0.00260336 -0.00315775 -0.00055439 0.00288056 -0.00102449 -0.00185607 0.00110139 -0.00076776 -0.00257065 -0.00308726 -0.00300409 -0.00288664
533 -0.00258598 -0.00313691 -0.000550939 0.00286144 -0.00101752 -0.00184393 0.00109265 -0.000763573 -0.00255332 -0.00306595 -0.00298323 -0.00286658
534 -0.00256863 -0.00311654 -0.000547908 0.00284259 -0.00101036 -0.00183223 0.00108377 -0.00075954 -0.00253634 -0.00304509 -0.0029628 -0.00284694
535 -0.0025514 -0.00309644 -0.000545031 0.00282392 -0.00100319 -0.00182073 0.00107488 -0.000755713 -0.00251963 -0.00302455 -0.00294267 -0.00282759
536 -0.00253437 -0.00307646 -0.000542089 0.00280542 -0.000996142 -0.00180927 0.00106607 -0.000751896 -0.00250293 -0.0030041 -0.00292265 -0.00280835
537 -0.00251752 -0.00305651 -0.000538987 0.00278702 -0.000989268 -0.00179775 0.00105736 -0.000748143 -0.00248643 -0.00298381 -0.00290276 -0.00278921
538 -0.00250092 -0.00303665 -0.000535732 0.00276878 -0.000982593 -0.00178619 0.00104882 -0.000744403 -0.00247014 -0.00296373 -0.00288306 -0.00277022
539 -0.00248465 -0.00301699 -0.000532342 0.00275082 -0.000976156 -0.00177467 0.00104072 -0.000740498 -0.00245405 -0.00294392 -0.00286364 -0.00275151
540 -0.0024688 -0.00299764 -0.000528838 0.00273322 -0.000969983 -0.00176324 0.00103301 -0.000736496 -0.00243818 -0.00292443 -0.00284456 -0.00273314
541 -0.0024531 -0.0029786 -0.000525503 0.00271585 -0.000963798 -0.00175205 0.00102533 -0.000732544 -0.00242252 -0.00290525 -0.0028258 -0.0027151
542 -0.00243736 -0.00295985 -0.000522489 0.00269861 -0.000957437 -0.00174117 0.00101747 -0.000728681 -0.00240698 -0.00288626 -0.00280724 -0.00269726
543 -0.0024217 -0.0029414 -0.0005197 0.00268155 -0.000951001 -0.00173055 0.00100931 -0.000725097 -0.00239163 -0.00286747 -0.00278886 -0.0026796
544 -0.00240624 -0.00292327 -0.000517027 0.00266475 -0.000944607 -0.00172015 0.00100131 -0.000721661 -0.00237662 -0.00284903 -0.00277078 -0.00266219
545 -0.00239098 -0.0029053 -0.000514322 0.00264814 -0.00093833 -0.00170981 0.000993453 -0.00071831 -0.00236188 -0.00283089 -0.00275297 -0.00264504
546 -0.00237595 -0.0028875 -0.000511553 0.00263173 -0.000932199 -0.00169953 0.000985903 -0.000714838 -0.00234732 -0.00281302 -0.00273542 -0.00262813
547 -0.00236114 -0.00286987 -0.00050873 0.00261551 -0.000926207 -0.0016893 0.000978503 -0.000711361 -0.00233299 -0.00279541 -0.00271814 -0.00261148
548 -0.00234656 -0.00285237 -0.000505814 0.00259946 -0.000920371 -0.00167909 0.000971381 -0.000707704 -0.00231867 -0.0027779 -0.00270101 -0.00259499
549 -0.00233217 -0.002835 -0.000502827 0.00258358 -0.000914671 -0.00166891 0.000964393 -0.00070409 -0.00230448 -0.00276053 -0.00268401 -0.00257864
550 -0.00231792 -0.00281777 -0.000499845 0.00256785 -0.000909039 -0.00165881 0.000957342 -0.000700603 -0.00229036 -0.00274329 -0.00266714 -0.00256241
551 -0.00230383 -0.00280077 -0.000496943 0.0025523 -0.000903441 -0.00164886 0.000950371 -0.000697193 -0.00227642 -0.0027262 -0.00265041 -0.0025463
552 -0.00228977 -0.00278402 -0.000494246 0.0025369 -0.000897763 -0.00163913 0.000943452 -0.00069378 -0.00226261 -0.0027093 -0.00263387 -0.00253038
553 -0.0022758 -0.00276744 -0.00049164 0.00252162 -0.000892082 -0.00162954 0.000936449 -0.000690429 -0.00224896 -0.0026926 -0.00261751 -0.00251463
554 -0.00226192 -0.00275093 -0.00048901 0.00250643 -0.000886457 -0.00161997 0.000929501 -0.000687081 -0.00223543 -0.00267606 -0.0026013 -0.00249902
555 -0.00224819 -0.00273466 -0.00048647 0.00249142 -0.000880858 -0.00161056 0.000922742 -0.000683711 -0.00222213 -0.00265983 -0.00258541 -0.00248373
556 -0.00223471 -0.00271865 -0.000483942 0.00247668 -0.000875386 -0.0016013 0.000916054 -0.000680454 -0.0022091 -0.00264389 -0.00256981 -0.00246872
557 -0.00222142 -0.00270278 -0.000481359 0.0024621 -0.000870032 -0.00159207 0.000909548 -0.000677253 -0.00219622 -0.00262814 -0.00255437 -0.00245385
558 -0.00220826 -0.00268691 -0.000478659 0.00244759 -0.000864798 -0.00158279 0.000903009 -0.000674163 -0.00218347 -0.00261248 -0.00253899 -0.00243902
559 -0.00219521 -0.0026711 -0.000475889 0.00243316 -0.000859662 -0.0015735 0.000896586 -0.000671017 -0.00217076 -0.0025969 -0.00252371 -0.00242429
560 -0.00218229 -0.00265556 -0.000473272 0.00241893 -0.000854509 -0.00156442 0.000890202 -0.000667921 -0.00215821 -0.00258151 -0.00250862 -0.00240976
561 -0.00216949 -0.00264025 -0.000470764 0.00240487 -0.000849362 -0.00155551 0.000883899 -0.000664789 -0.00214571 -0.00256622 -0.00249365 -0.00239534
562 -0.00215686 -0.00262532 -0.000468461 0.00239109 -0.0008442 -0.00154689 0.000877766 -0.00066156 -0.00213332 -0.00255117 -0.00247894 -0.0023812
563 -0.00214437 -0.00261071 -0.000466334 0.00237754 -0.000839019 -0.00153852 0.000871808 -0.00065832 -0.00212111 -0.00253637 -0.00246449 -0.00236732
564 -0.00213196 -0.00259609 -0.000464123 0.00236403 -0.000833921 -0.00153011 0.000865728 -0.000655253 -0.00210903 -0.00252166 -0.0024501 -0.00235347
565 -0.00211961 -0.00258127 -0.000461662 0.00235044 -0.000828972 -0.00152147 0.000859641 -0.000652236 -0.00209697 -0.00250694 -0.00243568 -0.00233959
566 -0.00210736 -0.00256645 -0.000459096 0.00233691 -0.000824131 -0.00151278 0.00085366 -0.000649314 -0.00208511 -0.00249239 -0.00242141 -0.00232582
567 -0.00209515 -0.00255161 -0.000456459 0.00232338 -0.000819347 -0.00150404 0.000847826 -0.000646271 -0.00207325 -0.00247788 -0.00240718 -0.0023121
568 -0.00208303 -0.00253679 -0.000453761 0.00230991 -0.000814635 -0.00149528 0.000842055 -0.000643219 -0.00206145 -0.00246342 -0.00239301 -0.00229843
569 -0.00207105 -0.00252211 -0.000451055 0.00229658 -0.000809999 -0.00148658 0.000836212 -0.000640245 -0.00204981 -0.00244916 -0.00237902 -0.00228492
570 -0.00205926 -0.00250781 -0.000448556 0.00228353 -0.00080535 -0.00147818 0.00083035 -0.000637356 -0.00203839 -0.00243519 -0.00236532 -0.00227173
571 -0.00204756 -0.00249398 -0.000446417 0.00227077 -0.000800572 -0.0014702 0.000824696 -0.00063438 -0.00202707 -0.00242145 -0.0023519 -0.00225883
572 -0.00203597 -0.0024805 -0.000444521 0.00225824 -0.000795727 -0.00146251 0.000819052 -0.000631518 -0.00201593 -0.00240792 -0.00233866 -0.0022461
573 -0.00202449 -0.00246725 -0.000442768 0.00224587 -0.000790859 -0.00145501 0.000813457 -0.000628666 -0.00200485 -0.00239451 -0.00232555 -0.00223351
574 -0.00201318 -0.00245407 -0.000440886 0.00223363 -0.000786148 -0.00144748 0.000807949 -0.00062588 -0.00199391 -0.00238123 -0.00231255 -0.00222101
575 -0.00200206 -0.00244078 -0.000438717 0.00222142 -0.000781672 -0.00143975 0.000802495 -0.000623218 -0.00198318 -0.00236807 -0.00229964 -0.00220856
576 -0.00199101 -0.00242732 -0.000436316 0.00220917 -0.000777346 -0.00143182 0.000797145 -0.00062049 -0.00197239 -0.00235485 -0.00228669 -0.00219606
577 -0.00197992 -0.0024138 -0.000433876 0.00219686 -0.000773023 -0.00142384 0.000791793 -0.000617737 -0.0019616 -0.00234162 -0.00227372 -0.00218354
578 -0.00196884 -0.00240032 -0.00043148 0.00218458 -0.00076868 -0.0014159 0.00078657 -0.000614912 -0.00195085 -0.00232848 -0.00226084 -0.00217113
579 -0.00195779 -0.00238695 -0.000429159 0.00217237 -0.000764314 -0.00140805 0.000781455 -0.000611926 -0.00194008 -0.00231543 -0.00224808 -0.00215883
580 -0.00194687 -0.00237359 -0.000426724 0.00216023 -0.000760071 -0.00140016 0.000776357 -0.000608987 -0.0019294 -0.00230245 -0.00223537 -0.00214659
581 -0.00193613 -0.00236047 -0.000424331 0.0021483 -0.000755902 -0.0013924 0.000771236 -0.000606283 -0.00191894 -0.00228966 -0.00222283 -0.00213452
582 -0.00192551 -0.00234768 -0.00042217 0.00213659 -0.000751667 -0.00138492 0.00076612 -0.000603669 -0.00190861 -0.00227708 -0.00221051 -0.00212265
583 -0.00191488 -0.00233506 -0.00042018 0.00212497 -0.000747351 -0.00137762 0.000761045 -0.000600994 -0.00189826 -0.00226455 -0.00219827 -0.00211089
584 -0.00190432 -0.00232262 -0.000418303 0.00211347 -0.000743007 -0.00137046 0.000755799 -0.000598472 -0.00188818 -0.00225225 -0.00218623 -0.00209929
585 -0.00189397 -0.00231052 -0.000416552 0.00210224 -0.000738708 -0.00136354 0.00075065 -0.000596036 -0.00187838 -0.00224028 -0.00217449 -0.00208797
586 -0.00188375 -0.00229852 -0.00041477 0.00209113 -0.000734488 -0.00135664 0.000745616 -0.000593507 -0.00186863 -0.0022284 -0.00216285 -0.00207676
587 -0.00187356 -0.00228642 -0.00041286 0.00207999 -0.00073035 -0.00134964 0.000740616 -0.000590979 -0.00185885 -0.00221649 -0.00215118 -0.00206552
588 -0.00186339 -0.00227432 -0.000410927 0.00206886 -0.000726234 -0.00134262 0.000735809 -0.00058826 -0.00184902 -0.00220459 -0.00213955 -0.00205432
589 -0.00185323 -0.00226214 -0.000408909 0.00205769 -0.000722163 -0.00133553 0.000731133 -0.000585516 -0.00183918 -0.00219266 -0.00212786 -0.00204306
590 -0.00184313 -0.00224986 -0.000406732 0.0020465 -0.0007182 -0.0013283 0.000726463 -0.000582885 -0.00182938 -0.00218067 -0.00211611 -0.00203172
591 -0.00183312 -0.00223759 -0.000404475 0.00203536 -0.000714322 -0.00132103 0.000721809 -0.000580306 -0.0018196 -0.00216873 -0.0021044 -0.00202044
592 -0.00182329 -0.00222548 -0.000402195 0.00202439 -0.000710547 -0.00131384 0.000717242 -0.000577689 -0.00180981 -0.00215688 -0.00209283 -0.0020093
593 -0.00181367 -0.00221366 -0.000399993 0.00201367 -0.000706839 -0.00130683 0.000712733 -0.000575259 -0.00180034 -0.00214534 -0.00208153 -0.00199842
594 -0.00180421 -0.00220214 -0.000397931 0.00200317 -0.000703138 -0.00130003 0.000708164 -0.000573025 -0.00179121 -0.00213411 -0.00207052 -0.00198779
595 -0.0017948 -0.00219085 -0.000396056 0.00199283 -0.000699371 -0.00129346 0.000703678 -0.000570764 -0.00178217 -0.00212305 -0.00205968 -0.00197734
596 -0.00178535 -0.0021797 -0.000394348 0.00198252 -0.000695501 -0.00128702 0.000699166 -0.000568429 -0.00177314 -0.00211206 -0.00204892 -0.00196698
597 -0.00177581 -0.00216848 -0.000392671 0.00197214 -0.000691567 -0.00128057 0.000694508 -0.000566038 -0.00176405 -0.00210104 -0.00203813 -0.0019566
598 -0.00176625 -0.00215719 -0.000390942 0.00196172 -0.000687653 -0.00127407 0.000689829 -0.000563534 -0.00175488 -0.00208996 -0.00202731 -0.00194618
599 -0.0017567 -0.0021459 -0.0003892 0.0019513 -0.000683749 -0.00126755 0.000685222 -0.000560979 -0.00174575 -0.00207891 -0.00201649 -0.00193576
600 -0.00174711 -0.00213464 -0.000387535 0.00194088 -0.000679787 -0.00126109 0.000680485 -0.000558542 -0.00173672 -0.00206791 -0.00200569 -0.00192535
601 -0.00173764 -0.00212338 -0.000385735 0.00193051 -0.000675953 -0.00125456 0.000675977 -0.000556147 -0.00172767 -0.0020569 -0.0019949 -0.00191494
602 -0.00172834 -0.00211207 -0.000383733 0.00192021 -0.000672304 -0.0012479 0.000671759 -0.000553647 -0.00171851 -0.00204585 -0.0019841 -0.00190455
603 -0.00171924 -0.00210084 -0.000381606 0.00191004 -0.000668816 -0.00124122 0.000667611 -0.000551199 -0.00170951 -0.00203494 -0.00197344 -0.00189429
604 -0.00171028 -0.00208976 -0.000379482 0.00190002 -0.000665397 -0.00123462 0.000663509 -0.000548796 -0.00170072 -0.00202424 -0.00196298 -0.00188421
605 -0.00170151 -0.00207902 -0.000377511 0.00189026 -0.000661997 -0.00122826 0.000659508 -0.000546541 -0.00169222 -0.00201385 -0.0019528 -0.00187439
606 -0.00169294 -0.00206855 -0.000375611 0.00188075 -0.000658665 -0.00122208 0.000655635 -0.0005443 -0.00168386 -0.00200364 -0.00194281 -0.00186476
607 -0.00168447 -0.00205834 -0.000373877 0.0018714 -0.000655295 -0.00121611 0.00065179 -0.000542106 -0.00167559 -0.00199358 -0.00193297 -0.00185528
608 -0.001676 -0.00204823 -0.000372238 0.00186211 -0.000651879 -0.00121024 0.000647741 -0.000540033 -0.0016674 -0.00198357 -0.00192316 -0.00184583
609 -0.00166748 -0.00203808 -0.000370594 0.00185278 -0.000648445 -0.00120434 0.000643501 -0.000538044 -0.00165925 -0.00197357 -0.00191335 -0.00183636
610 -0.00165889 -0.00202795 -0.000369065 0.00184342 -0.00064491 -0.00119851 0.000639211 -0.000536033 -0.00165115 -0.00196364 -0.00190358 -0.00182695
611 -0.0016502 -0.00201775 -0.000367552 0.00183398 -0.000641325 -0.00119265 0.000634826 -0.000533942 -0.00164295 -0.00195366 -0.00189378 -0.00181751
612 -0.00164144 -0.00200753 -0.000366089 0.00182448 -0.000637675 -0.00118681 0.000630485 -0.000531711 -0.00163459 -0.0019436 -0.00188395 -0.00180805
613 -0.00163269 -0.00199725 -0.000364558 0.00181497 -0.000634068 -0.0011809 0.000626257 -0.000529444 -0.00162619 -0.00193351 -0.00187408 -0.00179855
614 -0.001624 -0.00198683 -0.00036283 0.00180542 -0.000630586 -0.00117483 0.000622233 -0.000527088 -0.00161778 -0.00192337 -0.00186418 -0.00178901
615 -0.00161542 -0.0019763 -0.000360879 0.00179586 -0.000627269 -0.00116859 0.00061835 -0.000524729 -0.00160943 -0.00191328 -0.00185432 -0.00177951
616 -0.00160693 -0.00196576 -0.000358836 0.00178634 -0.000624045 -0.0011623 0.000614499 -0.000522464 -0.00160127 -0.00190333 -0.00184456 -0.00177009
617 -0.00159853 -0.00195533 -0.000356794 0.00177693 -0.000620869 -0.00115606 0.000610796 -0.00052008 -0.0015931 -0.00189342 -0.00183489 -0.00176077
618 -0.00159031 -0.00194515 -0.000354837 0.00176773 -0.000617736 -0.00114999 0.000607126 -0.00051773 -0.00158502 -0.00188362 -0.00182533 -0.00175157
619 -0.00158233 -0.00193518 -0.000352856 0.00175875 -0.000614735 -0.00114402 0.0006037 -0.000515466 -0.00157709 -0.00187394 -0.00181587 -0.00174245
620 -0.0015745 -0.00192561 -0.000351115 0.00175006 -0.000611692 -0.00113836 0.000600236 -0.000513375 -0.0015694 -0.00186454 -0.00180666 -0.00173357
621 -0.0015668 -0.00191649 -0.000349689 0.00174165 -0.000608556 -0.00113309 0.000596794 -0.000511398 -0.00156198 -0.00185546 -0.00179776 -0.00172499
622 -0.00155916 -0.00190764 -0.000348478 0.0017334 -0.000605343 -0.00112806 0.000593146 -0.00050956 -0.00155472 -0.00184661 -0.00178908 -0.00171664
623 -0.0015515 -0.00189876 -0.000347257 0.00172513 -0.000602123 -0.00112301 0.000589216 -0.000507804 -0.00154744 -0.00183776 -0.0017804 -0.0017083
624 -0.00154381 -0.00188977 -0.000345957 0.00171679 -0.000598928 -0.00111786 0.000585208 -0.000506023 -0.00154004 -0.00182883 -0.00177167 -0.00169989
625 -0.00153608 -0.00188065 -0.00034457 0.00170837 -0.000595757 -0.00111261 0.000581102 -0.000504284 -0.00153265 -0.00181988 -0.00176289 -0.00169143
626 -0.00152832 -0.00187153 -0.000343209 0.00169992 -0.000592555 -0.00110737 0.0005771 -0.000502509 -0.0015253 -0.00181095 -0.00175413 -0.00168298
627 -0.0015205 -0.00186228 -0.00034178 0.00169139 -0.00058936 -0.00110203 0.000573358 -0.000500557 -0.00151789 -0.00180197 -0.00174532 -0.00167449
628 -0.00151265 -0.00185288 -0.000340235 0.00168276 -0.000586206 -0.00109656 0.000569678 -0.000498582 -0.00151052 -0.00179298 -0.00173648 -0.00166595
629 -0.00150484 -0.00184337 -0.000338523 0.00167411 -0.000583161 -0.00109095 0.000566153 -0.000496464 -0.00150305 -0.0017839 -0.0017276 -0.00165738
630 -0.00149712 -0.00183365 -0.000336525 0.00166538 -0.000580299 -0.00108509 0.000562834 -0.000494255 -0.00149548 -0.00177468 -0.00171859 -0.0016487
631 -0.00148949 -0.00182386 -0.000334371 0.00165667 -0.000577559 -0.00107911 0.000559573 -0.00049208 -0.00148794 -0.00176542 -0.00170953 -0.00163995
632 -0.00148188 -0.00181422 -0.000332344 0.00164805 -0.000574768 -0.00107328 0.000556351 -0.000489889 -0.00148044 -0.00175625 -0.00170056 -0.00163129
633 -0.00147432 -0.0018049 -0.000330581 0.00163961 -0.00057187 -0.00106774 0.000553106 -0.000487701 -0.00147305 -0.00174728 -0.00169179 -0.00162285
634 -0.00146688 -0.00179588 -0.000329004 0.00163138 -0.000568938 -0.00106244 0.000549803 -0.000485613 -0.00146581 -0.00173852 -0.00168324 -0.00161462
635 -0.00145957 -0.00178721 -0.00032764 0.00162339 -0.000565966 -0.00105743 0.000546599 -0.00048354 -0.0014587 -0.00173 -0.00167494 -0.00160664
636 -0.00145233 -0.00177879 -0.000326457 0.00161556 -0.000562937 -0.00105262 0.000543425 -0.000481414 -0.00145158 -0.00172158 -0.00166677 -0.00159882
637 -0.00144525 -0.00177059 -0.000325345 0.00160792 -0.00055995 -0.00104797 0.000540089 -0.000479465 -0.00144466 -0.00171336 -0.00165877 -0.00159115
638 -0.00143833 -0.0017626 -0.000324273 0.00160047 -0.000557028 -0.00104344 0.000536738 -0.000477692 -0.00143799 -0.00170537 -0.00165098 -0.00158365
639 -0.00143147 -0.00175467 -0.000323203 0.00159307 -0.000554133 -0.00103894 0.000533085 -0.000476206 -0.00143153 -0.00169751 -0.00164326 -0.00157621
640 -0.0014246 -0.00174661 -0.000322006 0.00158561 -0.000551298 -0.00103431 0.000529327 -0.000474847 -0.00142516 -0.00168965 -0.00163551 -0.00156872
641 -0.00141776 -0.00173845 -0.000320688 0.0015781 -0.000548536 -0.00102957 0.000525601 -0.000473488 -0.0014188 -0.00168177 -0.00162773 -0.0015612
642 -0.00141086 -0.00173005 -0.000319184 0.00157046 -0.00054584 -0.00102462 0.00052209 -0.000471944 -0.00141226 -0.00167367 -0.00161974 -0.00155347
643 -0.00140391 -0.00172147 -0.000317557 0.00156269 -0.000543179 -0.00101951 0.000518805 -0.000470246 -0.0014056 -0.00166542 -0.00161161 -0.0015456
644 -0.00139697 -0.00171271 -0.000315736 0.00155484 -0.000540619 -0.00101422 0.000515638 -0.000468454 -0.00139887 -0.00165708 -0.0016034 -0.00153766
645 -0.00139008 -0.00170389 -0.000313812 0.00154699 -0.000538134 -0.00100885 0.000512632 -0.000466548 -0.00139211 -0.00164877 -0.00159525 -0.00152977
646 -0.00138317 -0.00169519 -0.000312019 0.00153918 -0.000535574 -0.0010036 0.000509694 -0.000464611 -0.00138538 -0.00164055 -0.0015872 -0.00152201
647 -0.00137623 -0.00168665 -0.000310426 0.00153144 -0.000532901 -0.00099854 0.000506729 -0.000462669 -0.00137865 -0.00163239 -0.00157924 -0.00151435
648 -0.00136931 -0.00167839 -0.000309083 0.00152385 -0.000530111 -0.000993736 0.000503791 -0.000460661 -0.00137189 -0.00162434 -0.00157142 -0.00150685
649 -0.00136247 -0.0016703 -0.000307827 0.00151639 -0.000527323 -0.000989063 0.000500973 -0.000458597 -0.00136515 -0.00161638 -0.0015637 -0.00149945
650 -0.00135577 -0.00166241 -0.000306641 0.00150909 -0.000524562 -0.000984523 0.000498234 -0.00045655 -0.00135855 -0.00160858 -0.00155613 -0.0014922
651 -0.00134911 -0.00165464 -0.000305531 0.00150188 -0.00052179 -0.000980087 0.000495367 -0.000454593 -0.00135209 -0.00160091 -0.00154867 -0.00148504
652 -0.00134253 -0.00164701 -0.000304485 0.00149477 -0.000519022 -0.000975749 0.000492439 -0.000452707 -0.00134573 -0.00159335 -0.00154132 -0.00147799
653 -0.00133596 -0.00163948 -0.000303529 0.00148772 -0.000516213 -0.000971507 0.000489331 -0.000450931 -0.00133952 -0.00158592 -0.00153408 -0.00147103
654 -0.00132943 -0.0016319 -0.000302469 0.00148066 -0.000513479 -0.000967183 0.00048611 -0.000449306 -0.00133341 -0.00157853 -0.00152684 -0.00146406
655 -0.00132303 -0.00162418 -0.000301147 0.00147361 -0.000510943 -0.000962663 0.00048286 -0.000447838 -0.00132737 -0.00157109 -0.00151952 -0.00145698
656 -0.00131673 -0.00161634 -0.000299619 0.00146654 -0.000508554 -0.000957982 0.0004796 -0.000446396 -0.00132132 -0.00156357 -0.00151211 -0.00144981
657 -0.00131043 -0.00160843 -0.000297996 0.00145943 -0.000506218 -0.000953212 0.000476354 -0.00044497 -0.00131526 -0.00155602 -0.00150466 -0.00144259
658 -0.00130426 -0.00160066 -0.000296404 0.00145246 -0.000503928 -0.000948534 0.000473185 -0.000443545 -0.0013093 -0.00154859 -0.00149733 -0.00143548
659 -0.00129824 -0.00159298 -0.000294746 0.00144561 -0.000501745 -0.000943864 0.000470167 -0.000442056 -0.00130339 -0.00154126 -0.00149011 -0.00142849
660 -0.00129228 -0.00158541 -0.000293133 0.00143884 -0.000499572 -0.000939271 0.0004673 -0.00044054 -0.00129755 -0.00153405 -0.00148302 -0.00142163
661 -0.0012862 -0.00157784 -0.000291643 0.00143202 -0.000497278 -0.000934742 0.000464378 -0.000438985 -0.00129165 -0.00152683 -0.00147594 -0.0014148
662 -0.00127996 -0.00157029 -0.00029033 0.00142512 -0.000494814 -0.00093031 0.000461427 -0.000437342 -0.00128556 -0.00151952 -0.00146881 -0.00140795
663 -0.00127368 -0.00156283 -0.00028915 0.00141826 -0.000492265 -0.000925991 0.000458638 -0.000435651 -0.00127947 -0.00151226 -0.00146174 -0.00140117
664 -0.00126741 -0.00155549 -0.000288083 0.00141145 -0.000489661 -0.000921785 0.000455869 -0.000433988 -0.00127349 -0.0015051 -0.00145475 -0.00139445
665 -0.00126119 -0.00154829 -0.000287097 0.00140474 -0.000487049 -0.000917694 0.000453231 -0.000432302 -0.00126758 -0.00149803 -0.00144786 -0.00138783
666 -0.00125508 -0.00154117 -0.000286094 0.00139813 -0.000484492 -0.000913634 0.000450777 -0.00043051 -0.00126168 -0.00149101 -0.00144103 -0.00138127
667 -0.0012491 -0.00153416 -0.00028506 0.00139163 -0.000482019 -0.00090961 0.000448474 -0.000428649 -0.00125582 -0.00148406 -0.00143429 -0.00137481
668 -0.00124319 -0.00152722 -0.000284031 0.00138521 -0.00047958 -0.000905626 0.000446146 -0.000426865 -0.00125008 -0.00147721 -0.00142763 -0.00136842
669 -0.00123731 -0.00152028 -0.00028297 0.00137879 -0.000477169 -0.000901623 0.00044373 -0.000425249 -0.00124449 -0.00147043 -0.00142099 -0.00136202
670 -0.00123142 -0.00151327 -0.000281847 0.00137234 -0.000474786 -0.000897556 0.000441125 -0.000423761 -0.00123894 -0.00146362 -0.00141431 -0.00135557
671 -0.00122555 -0.00150615 -0.000280598 0.00136585 -0.000472475 -0.000893373 0.000438403 -0.000422302 -0.00123337 -0.00145676 -0.00140757 -0.00134907
672 -0.00121973 -0.00149901 -0.000279278 0.00135937 -0.000470227 -0.000889144 0.000435599 -0.000420871 -0.00122784 -0.00144994 -0.00140088 -0.00134259
673 -0.00121399 -0.00149189 -0.000277899 0.00135294 -0.000468048 -0.000884896 0.000432735 -0.000419425 -0.00122233 -0.00144317 -0.00139423 -0.00133617
674 -0.00120831 -0.00148489 -0.000276581 0.0013466 -0.000465864 -0.000880735 0.000429828 -0.000417989 -0.00121688 -0.0014365 -0.00138768 -0.00132984
675 -0.00120267 -0.00147794 -0.000275273 0.00134031 -0.000463699 -0.000876609 0.000426965 -0.000416535 -0.00121144 -0.00142986 -0.00138116 -0.00132355
676 -0.00119704 -0.00147097 -0.000273928 0.001334 -0.000461555 -0.000872447 0.000424148 -0.000415027 -0.00120591 -0.00142315 -0.00137461 -0.00131723
677 -0.00119138 -0.00146391 -0.000272529 0.00132765 -0.000459427 -0.00086822 0.000421259 -0.000413464 -0.00120021 -0.00141633 -0.00136797 -0.00131085
678 -0.00118575 -0.00145679 -0.000271041 0.00132127 -0.000457355 -0.000863917 0.000418349 -0.000411976 -0.00119458 -0.00140955 -0.00136133 -0.00130445
679 -0.00118014 -0.0014497 -0.000269561 0.00131492 -0.000455289 -0.00085963 0.000415529 -0.00041047 -0.00118903 -0.00140283 -0.00135477 -0.00129811
680 -0.00117447 -0.0014427 -0.000268233 0.00130858 -0.000453117 -0.000855467 0.000412676 -0.000409038 -0.00118355 -0.00139618 -0.00134824 -0.00129182
681 -0.00116884 -0.00143595 -0.000267104 0.00130239 -0.000450869 -0.000851525 0.000409852 -0.000407693 -0.00117821 -0.00138968 -0.00134186 -0.00128566
682 -0.00116331 -0.00142948 -0.000266162 0.00129639 -0.000448576 -0.000847819 0.000407335 -0.000406302 -0.00117297 -0.00138336 -0.00133567 -0.00127971
683 -0.00115789 -0.00142319 -0.000265296 0.00129054 -0.000446297 -0.000844241 0.000405098 -0.000404847 -0.00116782 -0.00137715 -0.00132961 -0.00127388
684 -0.00115252 -0.00141699 -0.000264464 0.00128475 -0.000444029 -0.000840725 0.000402935 -0.00040341 -0.00116276 -0.00137102 -0.00132362 -0.00126811
685 -0.00114724 -0.00141082 -0.000263577 0.00127903 -0.000441831 -0.000837197 0.000400801 -0.000402037 -0.00115783 -0.00136497 -0.00131768 -0.00126238
686 -0.00114206 -0.0014047 -0.000262632 0.00127338 -0.000439716 -0.000833664 0.00039876 -0.000400639 -0.00115292 -0.00135897 -0.00131179 -0.00125671
687 -0.00113693 -0.00139853 -0.000261598 0.00126773 -0.000437669 -0.000830065 0.000396762 -0.000399218 -0.00114799 -0.00135295 -0.0013059 -0.00125103
688 -0.00113184 -0.00139223 -0.000260385 0.00126204 -0.000435729 -0.000826307 0.000394832 -0.000397777 -0.00114297 -0.00134681 -0.0012999 -0.00124524
689 -0.00112673 -0.00138595 -0.000259216 0.00125634 -0.000433758 -0.000822582 0.000392869 -0.000396263 -0.00113791 -0.00134067 -0.00129393 -0.0012395
690 -0.00112158 -0.00137969 -0.00025811 0.00125064 -0.000431737 -0.000818902 0.000390769 -0.000394762 -0.00113288 -0.00133461 -0.00128802 -0.00123382
691 -0.00111641 -0.00137346 -0.000257045 0.00124493 -0.000429683 -0.00081525 0.000388459 -0.000393319 -0.00112788 -0.00132858 -0.00128214 -0.00122816
692 -0.00111122 -0.00136722 -0.000255995 0.00123922 -0.000427614 -0.000811607 0.000386099 -0.000391866 -0.00112283 -0.00132254 -0.00127626 -0.00122252
693 -0.00110603 -0.00136101 -0.000254978 0.00123352 -0.000425525 -0.000807993 0.000383699 -0.00039038 -0.00111772 -0.00131648 -0.00127038 -0.00121688
694 -0.00110081 -0.00135481 -0.000253997 0.00122781 -0.000423407 -0.000804403 0.000381212 -0.00038895 -0.00111267 -0.00131045 -0.00126449 -0.00121121
695 -0.00109558 -0.00134854 -0.000252965 0.00122206 -0.000421307 -0.000800754 0.000378554 -0.000387624 -0.00110764 -0.0013044 -0.00125856 -0.0012055
696 -0.00109036 -0.0013423 -0.000251942 0.00121633 -0.000419209 -0.000797122 0.00037569 -0.000386402 -0.00110271 -0.00129842 -0.0012527 -0.00119984
697 -0.00108517 -0.00133601 -0.000250841 0.00121059 -0.000417163 -0.000793425 0.000372763 -0.000385223 -0.00109785 -0.0012925 -0.00124686 -0.0011942
698 -0.00108001 -0.00132967 -0.000249659 0.00120484 -0.000415176 -0.000789664 0.000369815 -0.00038404 -0.00109298 -0.00128656 -0.00124102 -0.00118856
699 -0.00107491 -0.00132332 -0.00024841 0.00119912 -0.000413252 -0.000785867 0.000366985 -0.000382854 -0.00108811 -0.00128059 -0.00123515 -0.00118288
700 -0.00106995 -0.00131707 -0.000247118 0.00119351 -0.000411416 -0.000782093 0.000364349 -0.000381674 -0.00108333 -0.00127469 -0.00122933 -0.00117724
701 -0.00106508 -0.00131095 -0.000245865 0.00118802 -0.000409609 -0.000778407 0.000361828 -0.000380565 -0.0010787 -0.00126892 -0.00122363 -0.0011717
702 -0.00106031 -0.0013049 -0.000244594 0.0011826 -0.000407856 -0.000774747 0.000359481 -0.000379482 -0.00107419 -0.00126326 -0.00121804 -0.00116628
703 -0.0010556 -0.00129892 -0.000243313 0.00117726 -0.000406145 -0.000771114 0.000357457 -0.000378232 -0.00106964 -0.00125764 -0.00121252 -0.00116094
704 -0.00105091 -0.00129298 -0.000242073 0.00117195 -0.000404419 -0.000767529 0.000355661 -0.000376804 -0.00106498 -0.00125196 -0.00120699 -0.00115561
705 -0.00104616 -0.00128711 -0.000240956 0.00116663 -0.0004026 -0.000764035 0.000353987 -0.000375232 -0.00106022 -0.00124625 -0.00120145 -0.00115029
706 -0.00104142 -0.0012814 -0.000239975 0.00116141 -0.000400723 -0.000760686 0.000352348 -0.000373639 -0.00105549 -0.00124062 -0.001196 -0.00114505
707 -0.00103685 -0.00127593 -0.000239073 0.00115639 -0.00039889 -0.0007575 0.00035071 -0.000372193 -0.00105096 -0.00123518 -0.00119072 -0.00113999
708 -0.00103237 -0.00127066 -0.000238293 0.00115152 -0.000397039 -0.000754479 0.000349027 -0.000370891 -0.00104658 -0.00122991 -0.0011856 -0.00113509
709 -0.00102789 -0.00126556 -0.000237675 0.00114673 -0.000395107 -0.000751619 0.000347273 -0.00036963 -0.00104224 -0.00122473 -0.00118057 -0.00113027
710 -0.00102332 -0.00126043 -0.000237104 0.00114188 -0.00039311 -0.000748766 0.000345418 -0.000368283 -0.00103773 -0.00121944 -0.00117546 -0.0011254
711 -0.00101876 -0.00125517 -0.000236403 0.00113696 -0.00039118 -0.000745784 0.000343501 -0.00036698 -0.00103323 -0.00121412 -0.00117029 -0.00112046
712 -0.00101421 -0.00124981 -0.000235596 0.00113201 -0.000389308 -0.000742702 0.00034155 -0.000365713 -0.00102879 -0.00120881 -0.00116513 -0.00111551
713 -0.00100958 -0.00124437 -0.000234789 0.00112697 -0.000387394 -0.000739578 0.00033946 -0.000364484 -0.00102434 -0.00120349 -0.00115993 -0.0011105
714 -0.00100487 -0.00123883 -0.000233965 0.00112185 -0.00038545 -0.000736398 0.00033727 -0.000363286 -0.00101988 -0.00119813 -0.00115467 -0.00110544
715 -0.00100015 -0.00123336 -0.000233206 0.00111675 -0.000383473 -0.000733281 0.00033518 -0.000362009 -0.00101545 -0.00119283 -0.00114948 -0.00110043
716 -0.000995433 -0.00122784 -0.000232411 0.00111164 -0.000381511 -0.000730127 0.000333035 -0.000360732 -0.00101102 -0.00118753 -0.00114428 -0.00109542
717 -0.00099079 -0.00122226 -0.000231466 0.00110652 -0.000379662 -0.000726861 0.000330826 -0.000359543 -0.00100665 -0.00118222 -0.00113905 -0.00109036
718 -0.000986247 -0.00121657 -0.000230326 0.00110141 -0.000377961 -0.000723449 0.000328488 -0.000358529 -0.00100239 -0.00117695 -0.00113383 -0.0010853
719 -0.000981787 -0.00121087 -0.00022908 0.00109633 -0.000376353 -0.000719974 0.000326064 -0.000357606 -0.00099822 -0.00117173 -0.00112866 -0.00108027
720 -0.000977404 -0.00120522 -0.000227816 0.00109131 -0.000374794 -0.000716518 0.000323625 -0.000356767 -0.000994143 -0.00116659 -0.00112357 -0.00107531
721 -0.000973068 -0.00119965 -0.000226582 0.00108636 -0.000373243 -0.000713116 0.000321118 -0.000355995 -0.000990191 -0.00116155 -0.00111856 -0.00107043
722 -0.000968807 -0.00119417 -0.000225368 0.00108149 -0.00037172 -0.000709771 0.000318743 -0.000355129 -0.000986228 -0.00115654 -0.0011136 -0.00106561
723 -0.000964614 -0.00118876 -0.000224147 0.00107669 -0.000370233 -0.000706454 0.000316588 -0.000354096 -0.000982193 -0.00115152 -0.00110867 -0.00106084
724 -0.000960445 -0.00118337 -0.000222921 0.00107191 -0.000368762 -0.000703144 0.000314449 -0.000353028 -0.000978111 -0.00114646 -0.00110371 -0.00105604
725 -0.00095631 -0.001178 -0.000221694 0.00106716 -0.000367308 -0.000699849 0.000312469 -0.00035183 -0.000973956 -0.00114139 -0.00109876 -0.00105127
726 -0.000952193 -0.00117279 -0.000220595 0.00106249 -0.000365799 -0.000696691 0.000310628 -0.000350564 -0.00096981 -0.00113637 -0.00109389 -0.00104658
727 -0.000948013 -0.00116768 -0.00021967 0.00105785 -0.000364172 -0.000693677 0.000308772 -0.000349328 -0.000965654 -0.00113136 -0.00108903 -0.00104193
728 -0.000943767 -0.00116259 -0.000218825 0.00105318 -0.000362471 -0.000690708 0.000306954 -0.000348033 -0.000961402 -0.0011263 -0.00108413 -0.00103724
729 -0.0009395 -0.00115752 -0.000218024 0.00104851 -0.000360738 -0.000687774 0.000305257 -0.000346608 -0.000957004 -0.00112117 -0.00107921 -0.00103255
730 -0.000935264 -0.00115255 -0.000217291 0.00104391 -0.000358986 -0.000684923 0.000303677 -0.000345173 -0.000952692 -0.00111614 -0.00107436 -0.00102793
731 -0.000931058 -0.00114771 -0.000216649 0.00103938 -0.000357205 -0.000682178 0.000302153 -0.00034377 -0.000948494 -0.00111122 -0.00106962 -0.0010234
732 -0.000926909 -0.00114304 -0.000216131 0.00103497 -0.000355389 -0.000679585 0.000300709 -0.000342379 -0.000944411 -0.00110647 -0.00106503 -0.00101902
733 -0.000922756 -0.00113842 -0.000215662 0.00103059 -0.000353547 -0.000677039 0.000299158 -0.000341043 -0.000940382 -0.00110176 -0.00106047 -0.00101466
734 -0.000918564 -0.0011338 -0.00021524 0.00102618 -0.000351662 -0.000674522 0.000297463 -0.000339774 -0.000936392 -0.0010971 -0.00105595 -0.00101033
735 -0.000914396 -0.00112915 -0.000214758 0.00102178 -0.000349819 -0.000671956 0.000295604 -0.000338621 -0.000932468 -0.00109246 -0.00105142 -0.00100598
736 -0.000910353 -0.00112455 -0.000214193 0.00101745 -0.00034808 -0.00066937 0.000293727 -0.000337602 -0.0009287 -0.00108792 -0.00104695 -0.00100167
737 -0.00090635 -0.00111995 -0.000213596 0.00101315 -0.000346377 -0.000666771 0.000291898 -0.000336676 -0.000925037 -0.00108343 -0.0010425 -0.000997358
738 -0.00090239 -0.00111526 -0.000212872 0.00100883 -0.000344759 -0.000664067 0.000290217 -0.000335677 -0.000921322 -0.0010789 -0.00103801 -0.000993007
739 -0.000898464 -0.00111049 -0.000212029 0.00100448 -0.000343217 -0.000661261 0.00028853 -0.000334661 -0.000917582 -0.00107433 -0.00103351 -0.00098864
740 -0.000894604 -0.0011056 -0.000210992 0.0010001 -0.000341806 -0.000658294 0.000286895 -0.000333621 -0.000913821 -0.00106973 -0.00102898 -0.000984249
741 -0.000890775 -0.00110062 -0.000209842 0.000995696 -0.000340467 -0.000655229 0.000285229 -0.000332657 -0.000910159 -0.0010652 -0.0010245 -0.000979905
742 -0.000887006 -0.00109552 -0.000208515 0.000991264 -0.000339245 -0.000652018 0.000283513 -0.000331832 -0.000906611 -0.0010607 -0.00102004 -0.000975557
743 -0.000883313 -0.00109044 -0.000207129 0.000986877 -0.000338092 -0.000648785 0.000281812 -0.000331038 -0.000903056 -0.00105618 -0.00101557 -0.00097121
744 -0.000879611 -0.00108543 -0.000205821 0.000982521 -0.000336895 -0.000645626 0.000279989 -0.000330285 -0.000899499 -0.00105166 -0.00101111 -0.000966869
745 -0.000875906 -0.00108045 -0.000204542 0.000978177 -0.000335682 -0.000642495 0.000278073 -0.000329562 -0.000895943 -0.00104713 -0.00100663 -0.000962521
746 -0.000872231 -0.00107558 -0.000203354 0.000973908 -0.000334439 -0.000639469 0.000276179 -0.000328761 -0.000892391 -0.00104265 -0.00100223 -0.000958249
747 -0.000868534 -0.00107086 -0.000202324 0.000969696 -0.000333105 -0.000636591 0.000274243 -0.000327912 -0.000888828 -0.00103821 -0.000997867 -0.00095404
748 -0.000864811 -0.0010663 -0.000201486 0.000965554 -0.000331663 -0.000633892 0.000272376 -0.000326958 -0.000885229 -0.00103381 -0.000993577 -0.000949918
749 -0.000861004 -0.00106181 -0.000200803 0.000961406 -0.0003301 -0.000631305 0.000270435 -0.000325959 -0.000881534 -0.00102938 -0.000989279 -0.000945804
750 -0.000857121 -0.00105728 -0.00020016 0.000957202 -0.00032848 -0.000628721 0.000268404 -0.000324952 -0.000877741 -0.00102487 -0.00098492 -0.000941637
751 -0.000853256 -0.00105277 -0.000199511 0.000953011 -0.000326873 -0.000626139 0.000266416 -0.000323958 -0.000873998 -0.00102041 -0.000980583 -0.000937483
752 -0.000849435 -0.00104828 -0.000198847 0.000948859 -0.000325294 -0.000623565 0.000264501 -0.000322946 -0.000870318 -0.00101601 -0.000976312 -0.000933391
753 -0.00084564 -0.00104388 -0.00019824 0.00094476 -0.0003237 -0.00062106 0.000262668 -0.000321877 -0.000866674 -0.00101168 -0.000972109 -0.000929364
754 -0.000841892 -0.00103954 -0.000197647 0.000940715 -0.000322123 -0.000618593 0.000260954 -0.000320705 -0.000863034 -0.00100739 -0.000967951 -0.000925384
755 -0.000838264 -0.00103527 -0.000197008 0.000936768 -0.000320628 -0.00061614 0.000259485 -0.000319414 -0.000859386 -0.00100314 -0.00096385 -0.000921465
756 -0.000834663 -0.00103106 -0.000196402 0.000932864 -0.000319131 -0.000613733 0.000257983 -0.000318216 -0.000855826 -0.000998941 -0.000959783 -0.00091757
757 -0.000830998 -0.00102693 -0.00019593 0.000928963 -0.000317534 -0.000611429 0.000256394 -0.000317101 -0.000852324 -0.000994788 -0.000955736 -0.000913684
758 -0.000827303 -0.00102291 -0.000195604 0.000925105 -0.000315849 -0.000609256 0.000254808 -0.00031598 -0.00084885 -0.000990703 -0.000951758 -0.000909871
759 -0.00082363 -0.00101893 -0.000195303 0.000921281 -0.000314164 -0.000607118 0.000253186 -0.000314892 -0.000845436 -0.000986691 -0.000947844 -0.000906112
760 -0.00082004 -0.00101499 -0.000194952 0.000917516 -0.000312544 -0.000604972 0.000251606 -0.000313833 -0.000842091 -0.000982751 -0.000943995 -0.000902412
761 -0.000816506 -0.00101099 -0.000194479 0.000913746 -0.000311013 -0.000602732 0.000250105 -0.000312766 -0.000838738 -0.000978798 -0.000940133 -0.000898694
762 -0.000813014 -0.00100688 -0.000193868 0.000909948 -0.000309573 -0.000600375 0.000248703 -0.000311675 -0.000835373 -0.000974815 -0.00093624 -0.00089494
763 -0.000809563 -0.00100271 -0.00019315 0.000906138 -0.000308206 -0.000597932 0.000247412 -0.000310571 -0.000832013 -0.000970813 -0.000932326 -0.000891157
764 -0.00080616 -0.000998459 -0.000192299 0.00090231 -0.000306931 -0.000595379 0.000246177 -0.000309487 -0.000828667 -0.000966794 -0.000928384 -0.000887342
765 -0.000802836 -0.000994106 -0.00019127 0.000898471 -0.000305783 -0.000592688 0.000244949 -0.000308498 -0.000825381 -0.000962759 -0.000924413 -0.000883487
766 -0.000799572 -0.000989624 -0.000190051 0.000894598 -0.000304761 -0.000589837 0.00024378 -0.000307515 -0.000822048 -0.000958638 -0.000920366 -0.000879557
767 -0.00079627 -0.000984915 -0.000188645 0.000890593 -0.000303813 -0.00058678 0.000242537 -0.000306558 -0.000818636 -0.000954381 -0.000916181 -0.000875493
768 -0.000792945 -0.000980039 -0.000187094 0.000886492 -0.000302925 -0.000583566 0.000241094 -0.000305753 -0.000815232 -0.000950044 -0.000911899 -0.000871325
769 -0.000789689 -0.00097538 -0.000185692 0.000882534 -0.000301998 -0.000580536 0.000239562 -0.000305057 -0.00081197 -0.000945855 -0.000907759 -0.000867294
770 -0.000786484 -0.000971037 -0.000184553 0.000878761 -0.000300965 -0.000577795 0.000238059 -0.000304442 -0.000808868 -0.000941884 -0.000903826 -0.000863476
771 -0.000783316 -0.000966913 -0.000183597 0.000875114 -0.00029986 -0.000575255 0.000236553 -0.000303856 -0.000805836 -0.000938034 -0.000900024 -0.000859796
772 -0.00078012 -0.00096285 -0.00018273 0.000871485 -0.000298695 -0.00057279 0.000235001 -0.000303223 -0.000802709 -0.000934161 -0.00089623 -0.000856142
773 -0.000776899 -0.000958824 -0.000181925 0.000867862 -0.000297487 -0.000570374 0.000233363 -0.000302555 -0.000799527 -0.000930271 -0.000892436 -0.000852496
774 -0.000773633 -0.000954897 -0.000181264 0.000864265 -0.000296184 -0.00056808 0.000231677 -0.000301906 -0.000796405 -0.000926448 -0.000888696 -0.000848901
775 -0.000770342 -0.000951063 -0.000180721 0.000860702 -0.000294811 -0.000565892 0.000229943 -0.000301269 -0.000793325 -0.000922681 -0.00088501 -0.000845357
776 -0.00076704 -0.000947279 -0.000180239 0.00085716 -0.000293401 -0.000563759 0.000228225 -0.000300627 -0.000790271 -0.000918943 -0.000881342 -0.00084183
777 -0.000763761 -0.000943631 -0.00017987 0.000853696 -0.000291946 -0.00056175 0.000226648 -0.000299838 -0.000787219 -0.000915277 -0.000877769 -0.000838406
778 -0.000760449 -0.000939989 -0.000179541 0.000850219 -0.000290454 -0.000559765 0.000225025 -0.000299 -0.000784146 -0.000911615 -0.000874208 -0.000835001
779 -0.000757127 -0.000936251 -0.000179124 0.000846689 -0.000289002 -0.000557688 0.000223423 -0.00029814 -0.000781072 -0.000907918 -0.000870604 -0.000831545
780 -0.000753854 -0.000932475 -0.000178621 0.000843165 -0.000287617 -0.000555548 0.000221985 -0.000297233 -0.000778023 -0.000904241 -0.000867011 -0.00082809
781 -0.000750643 -0.000928711 -0.000178068 0.000839677 -0.000286288 -0.000553389 0.000220619 -0.000296292 -0.00077501 -0.000900612 -0.000863471 -0.000824683
782 -0.000747441 -0.000925007 -0.000177567 0.000836224 -0.000284937 -0.000551287 0.00021925 -0.000295302 -0.00077201 -0.000897046 -0.000859998 -0.000821346
783 -0.00074426 -0.000921301 -0.000177041 0.00083278 -0.00028361 -0.000549171 0.000217885 -0.000294238 -0.000768972 -0.000893481 -0.000856539 -0.000818029
784 -0.000741139 -0.000917674 -0.000176535 0.000829407 -0.000282302 -0.000547105 0.000216536 -0.000293186 -0.00076599 -0.000889989 -0.000853153 -0.00081478
785 -0.000738045 -0.000914121 -0.000176077 0.000826083 -0.000280984 -0.000545099 0.000215193 -0.000292112 -0.000763044 -0.000886564 -0.000849833 -0.000811597
786 -0.00073497 -0.000910616 -0.000175647 0.000822793 -0.000279662 -0.000543131 0.000213878 -0.000291029 -0.000760081 -0.00088314 -0.000846522 -0.000808426
787 -0.000731917 -0.000907192 -0.000175275 0.000819554 -0.000278321 -0.000541233 0.000212571 -0.000289918 -0.000757105 -0.00087973 -0.000843237 -0.000805283
788 -0.000728879 -0.000903749 -0.00017487 0.000816314 -0.000277005 -0.000539309 0.000211276 -0.00028883 -0.000754129 -0.000876302 -0.000839931 -0.000802116
789 -0.000725861 -0.000900256 -0.000174395 0.000813059 -0.000275733 -0.000537326 0.000209907 -0.000287839 -0.000751202 -0.000872875 -0.000836612 -0.000798927
790 -0.000722855 -0.000896664 -0.000173808 0.000809759 -0.000274524 -0.000535236 0.000208481 -0.000286955 -0.000748336 -0.000869432 -0.000833246 -0.000795678
791 -0.000719847 -0.000892986 -0.000173139 0.000806417 -0.000273354 -0.000533062 0.000207055 -0.000286118 -0.000745481 -0.000865949 -0.000829824 -0.000792365
792 -0.000716828 -0.000889185 -0.000172357 0.000803006 -0.000272235 -0.000530771 0.000205707 -0.000285249 -0.000742537 -0.000862349 -0.000826287 -0.000788937
793 -0.000713827 -0.000885297 -0.00017147 0.000799562 -0.000271179 -0.000528384 0.00020436 -0.000284427 -0.000739577 -0.000858687 -0.000822672 -0.000785426
794 -0.000710878 -0.000881396 -0.000170518 0.000796137 -0.00027018 -0.000525957 0.000203048 -0.000283605 -0.000736603 -0.000855012 -0.000819051 -0.000781912
795 -0.000707964 -0.000877532 -0.000169568 0.000792748 -0.000269198 -0.00052355 0.000201761 -0.000282797 -0.000733656 -0.000851379 -0.000815471 -0.000778444
796 -0.000705044 -0.000873641 -0.000168596 0.000789343 -0.000268224 -0.000521119 0.000200414 -0.000282079 -0.000730751 -0.000847765 -0.000811904 -0.000774987
797 -0.000702108 -0.000869597 -0.000167489 0.000785853 -0.000267309 -0.000518543 0.000199042 -0.00028141 -0.000727799 -0.00084407 -0.000808262 -0.000771459
798 -0.000699166 -0.000865573 -0.000166406 0.00078237 -0.00026638 -0.00051599 0.000197706 -0.000280711 -0.000724745 -0.00084032 -0.000804588 -0.000767914
799 -0.000696255 -0.000861639 -0.000165384 0.000778947 -0.000265436 -0.000513512 0.000196378 -0.000280077 -0.000721786 -0.000836645 -0.000800976 -0.000764421
800 -0.000693386 -0.000857812 -0.000164427 0.000775599 -0.000264479 -0.000511119 0.000195087 -0.000279463 -0.000718902 -0.000833057 -0.000797442 -0.000761004
801 -0.000690524 -0.000854096 -0.000163572 0.00077231 -0.000263476 -0.000508834 0.000193724 -0.000278874 -0.000716093 -0.000829552 -0.000793993 -0.000757665
802 -0.000687698 -0.000850499 -0.000162802 0.000769098 -0.000262448 -0.000506651 0.0001924 -0.000278275 -0.000713339 -0.000826129 -0.000790624 -0.000754408
803 -0.000684874 -0.00084709 -0.000162216 0.000765982 -0.000261329 -0.000504653 0.000191122 -0.00027763 -0.000710642 -0.000822825 -0.000787385 -0.000751291
804 -0.000682063 -0.000843744 -0.000161681 0.000762904 -0.000260191 -0.000502713 0.000189846 -0.000276989 -0.000707953 -0.000819533 -0.000784164 -0.000748193
805 -0.000679297 -0.00084038 -0.000161083 0.000759839 -0.000259107 -0.000500731 0.000188569 -0.0002764 -0.000705293 -0.000816232 -0.000780918 -0.000745064
806 -0.000676556 -0.00083706 -0.000160504 0.000756808 -0.000258026 -0.000498782 0.000187189 -0.000275886 -0.000702707 -0.000812989 -0.000777724 -0.000741976
807 -0.000673879 -0.000833927 -0.000160047 0.000753903 -0.000256916 -0.000496987 0.000185841 -0.000275374 -0.000700228 -0.000809899 -0.000774686 -0.000739044
808 -0.000671284 -0.000830912 -0.000159628 0.000751098 -0.000255828 -0.00049527 0.00018459 -0.000274803 -0.000697795 -0.000806902 -0.000771753 -0.000736219
809 -0.000668766 -0.00082796 -0.000159194 0.000748363 -0.000254786 -0.000493577 0.000183521 -0.000274122 -0.000695378 -0.000803969 -0.000768902 -0.000733481
810 -0.000666252 -0.000825024 -0.000158772 0.000745638 -0.00025374 -0.000491898 0.000182608 -0.000273314 -0.000692945 -0.000801072 -0.0007661 -0.000730796
811 -0.000663664 -0.00082206 -0.000158396 0.000742862 -0.000252634 -0.000490228 0.000181626 -0.000272467 -0.000690467 -0.00079816 -0.000763291 -0.000728108
812 -0.000661018 -0.00081906 -0.000158042 0.000740039 -0.000251488 -0.000488551 0.000180648 -0.000271585 -0.000687962 -0.000795242 -0.000760482 -0.000725424
813 -0.000658364 -0.000816067 -0.000157703 0.000737216 -0.000250331 -0.000486885 0.0001797 -0.000270708 -0.000685492 -0.000792369 -0.00075771 -0.000722772
814 -0.000655713 -0.000813073 -0.00015736 0.000734393 -0.000249176 -0.000485216 0.000178807 -0.000269795 -0.000683021 -0.000789505 -0.000754947 -0.000720129
815 -0.000653061 -0.000810052 -0.00015699 0.000731557 -0.000248035 -0.000483521 0.000177959 -0.000268825 -0.000680506 -0.000786609 -0.000752155 -0.000717459
816 -0.00065042 -0.000806963 -0.000156543 0.000728692 -0.000246938 -0.000481753 0.000177108 -0.000267824 -0.000677951 -0.000783658 -0.000749315 -0.00071474
817 -0.000647843 -0.000803884 -0.000156042 0.000725863 -0.0002459 -0.000479963 0.000176253 -0.000266855 -0.000675432 -0.000780731 -0.000746492 -0.000712033
818 -0.000645286 -0.000800825 -0.000155539 0.000723056 -0.000244873 -0.000478182 0.000175325 -0.000265986 -0.000673013 -0.000777873 -0.000743716 -0.000709363
819 -0.000642747 -0.00079778 -0.000155033 0.000720264 -0.000243857 -0.000476406 0.000174312 -0.000265219 -0.000670675 -0.000775055 -0.000740958 -0.0007067
820 -0.000640188 -0.000794719 -0.000154532 0.000717453 -0.000242828 -0.000474625 0.000173231 -0.000264445 -0.000668288 -0.00077219 -0.000738158 -0.000704
821 -0.000637542 -0.000791545 -0.000154002 0.000714544 -0.00024177 -0.000472774 0.000172038 -0.000263635 -0.000665788 -0.000769194 -0.000735234 -0.00070118
822 -0.000634848 -0.000788257 -0.00015341 0.000711553 -0.000240719 -0.000470833 0.000170687 -0.000262872 -0.000663227 -0.000766098 -0.000732197 -0.000698246
823 -0.000632147 -0.000784896 -0.000152749 0.000708522 -0.000239699 -0.000468823 0.000169359 -0.000262029 -0.000660583 -0.000762924 -0.000729096 -0.000695253
824 -0.000629406 -0.000781553 -0.000152148 0.000705479 -0.000238629 -0.00046685 0.000168041 -0.000261167 -0.000657918 -0.000759737 -0.000725974 -0.000692242
825 -0.000626632 -0.000778168 -0.000151536 0.0007024 -0.000237548 -0.000464852 0.000166748 -0.00026029 -0.000655176 -0.000756463 -0.000722773 -0.000689159
826 -0.00062386 -0.00077474 -0.00015088 0.0006993 -0.00023649 -0.00046281 0.000165411 -0.000259425 -0.000652346 -0.00075311 -0.000719503 -0.000686015
827 -0.000621119 -0.000771307 -0.000150188 0.000696213 -0.000235466 -0.000460748 0.000164013 -0.000258619 -0.000649489 -0.000749741 -0.000716221 -0.000682862
828 -0.000618428 -0.000767897 -0.000149469 0.000693162 -0.000234479 -0.000458683 0.000162513 -0.000257958 -0.000646761 -0.000746448 -0.000712985 -0.000679739
829 -0.000615758 -0.00076453 -0.000148772 0.000690144 -0.000233493 -0.000456651 0.000160942 -0.00025741 -0.000644144 -0.000743239 -0.000709812 -0.000676668
830 -0.000613103 -0.000761075 -0.000147972 0.000687089 -0.000232565 -0.000454524 0.000159322 -0.000256979 -0.000641624 -0.000740058 -0.000706641 -0.000673585
831 -0.000610483 -0.000757684 -0.000147202 0.000684083 -0.00023164 -0.000452443 0.00015772 -0.000256612 -0.000639193 -0.000736954 -0.000703539 -0.000670565
832 -0.00060793 -0.000754474 -0.000146544 0.000681202 -0.000230693 -0.000450509 0.000156216 -0.00025623 -0.000636835 -0.000733962 -0.000700557 -0.000667672
833 -0.000605473 -0.000751346 -0.000145873 0.000678409 -0.0002298 -0.00044861 0.000154794 -0.000255864 -0.000634535 -0.000731019 -0.000697626 -0.000664824
834 -0.000603083 -0.000748281 -0.000145198 0.000675682 -0.000228943 -0.000446739 0.000153394 -0.000255544 -0.000632316 -0.000728137 -0.000694744 -0.000662017
835 -0.000600762 -0.000745314 -0.000144553 0.000673038 -0.000228105 -0.000444933 0.000152104 -0.000255181 -0.000630138 -0.000725326 -0.000691938 -0.000659287
836 -0.000598517 -0.000742457 -0.00014394 0.000670487 -0.000227289 -0.000443199 0.000150938 -0.000254752 -0.000627988 -0.000722589 -0.000689227 -0.000656658
837 -0.000596322 -0.00073966 -0.000143339 0.000667991 -0.000226492 -0.000441499 0.000149883 -0.000254302 -0.000625857 -0.000719891 -0.000686569 -0.000654085
838 -0.000594155 -0.000736894 -0.000142739 0.000665524 -0.000225708 -0.000439817 0.000148923 -0.000253792 -0.000623704 -0.000717202 -0.000683937 -0.000651543
839 -0.000592028 -0.000734217 -0.000142189 0.000663122 -0.00022492 -0.000438203 0.000148045 -0.000253205 -0.000621545 -0.000714566 -0.000681378 -0.000649085
840 -0.000589936 -0.000731607 -0.000141671 0.000660772 -0.000224133 -0.000436639 0.00014724 -0.000252568 -0.000619409 -0.000711984 -0.000678887 -0.000646697
841 -0.000587868 -0.000729138 -0.000141271 0.000658503 -0.000223299 -0.000435205 0.000146479 -0.000251909 -0.00061734 -0.000709516 -0.000676513 -0.000644426
842 -0.00058586 -0.000726752 -0.000140892 0.000656306 -0.000222484 -0.000433822 0.000145801 -0.000251209 -0.000615311 -0.00070712 -0.000674218 -0.000642234
843 -0.000583897 -0.00072443 -0.000140533 0.000654164 -0.000221682 -0.000432482 0.00014512 -0.000250543 -0.000613323 -0.000704773 -0.000671971 -0.000640087
844 -0.00058189 -0.000722097 -0.000140207 0.000651994 -0.000220842 -0.000431152 0.00014425 -0.000249947 -0.000611347 -0.000702427 -0.000669719 -0.000637934
845 -0.000579816 -0.000719688 -0.000139873 0.000649752 -0.000219971 -0.000429781 0.000143309 -0.000249378 -0.000609345 -0.000700045 -0.000667421 -0.000635732
846 -0.000577706 -0.000717272 -0.000139566 0.000647489 -0.00021907 -0.000428419 0.000142376 -0.000248774 -0.000607351 -0.000697682 -0.000665139 -0.000633544
847 -0.000575543 -0.000714819 -0.000139275 0.000645181 -0.000218134 -0.000427047 0.000141477 -0.000248096 -0.000605307 -0.000695291 -0.000662833 -0.000631334
848 -0.000573358 -0.000712312 -0.000138953 0.000642835 -0.000217203 -0.000425632 0.000140719 -0.000247324 -0.000603208 -0.000692859 -0.00066049 -0.000629089
849 -0.000571143 -0.000709703 -0.00013856 0.000640423 -0.000216292 -0.000424131 0.000139966 -0.000246525 -0.000601057 -0.000690363 -0.000658089 -0.000626784
850 -0.000568898 -0.000706973 -0.000138076 0.000637935 -0.000215411 -0.000422525 0.00013931 -0.000245682 -0.000598852 -0.000687802 -0.000655628 -0.000624422
851 -0.000566649 -0.000704154 -0.000137505 0.000635402 -0.000214572 -0.000420829 0.00013877 -0.000244822 -0.000596647 -0.00068522 -0.00065314 -0.000622031
852 -0.000564407 -0.000701314 -0.000136907 0.00063286 -0.00021375 -0.00041911 0.0001382 -0.000244064 -0.000594533 -0.000682682 -0.000650671 -0.000619646
853 -0.000562229 -0.000698534 -0.000136305 0.000630381 -0.000212962 -0.000417419 0.000137686 -0.000243297 -0.00059242 -0.00068015 -0.000648214 -0.000617276
