0.0      0      0      0      0      0      0      0      0      0      0      0      0
1.0 -0.00736267 -0.0108973 -0.00353464 0.00912999 -0.00191401 -0.00721598 0.014811 0.000550305 -0.0056947 -0.00731217 -0.00721668 -0.00717648
2.0 -0.0199175 -0.0284297 -0.00851219 0.0241736 -0.00570265 -0.0184709 0.0390028 0.000396093 -0.0154058 -0.0192583 -0.0189137 -0.0187393
3.0 -0.0358638 -0.0450439 -0.0091801 0.0404538 -0.0133418 -0.027112 0.0700451 0.000573492 -0.0240564 -0.0295749 -0.029163 -0.0288342
4.0 -0.0394988 -0.045453 -0.00595427 0.0424759 -0.0167722 -0.0257037 0.0788033 0.00146146 -0.0235748 -0.0289215 -0.0286676 -0.0283349
5.0 -0.0513978 -0.0713052 -0.0199074 0.0613515 -0.0157452 -0.0456063 0.0424602 -0.0378236 -0.0538404 -0.0538748 -0.0489562 -0.0465295
6.0 -0.026632 -0.0340539 -0.00742187 0.0303429 -0.00960506 -0.0207379 0.025935 -0.0200035 -0.0272467 -0.0267086 -0.023918 -0.02256
7.0 0.00216362 0.0168794 0.0147158 -0.00952152 -0.00627608 0.0157976 0.0157951 0.0103398 0.012623 0.013148 0.0121267 0.0117472
8.0 0.0110145 0.0228547 0.0118401 -0.0169346 -0.000412798 0.0173474 0.00473387 0.0146981 0.0171709 0.0167229 0.0154244 0.0147669
9.0 0.0050528 0.0163358 0.011283 -0.0106943 -0.00311509 0.0138094 0.00800098 0.00736751 0.00974235 0.0108043 0.0105319 0.0104848
10.0 0.00312205 0.0115325 0.00841049 -0.0073273 -0.00264422 0.00997152 0.00652639 0.00371855 0.00535155 0.00683157 0.00723544 0.00750856
11.0 -0.000293993 0.00689881 0.00719281 -0.00330241 -0.0037434 0.00704581 0.00415152 -0.00179694 6.62545e-05 0.0025763 0.00387028 0.00460735
12.0 -0.00621768 0.000645312 0.006863 0.00278619 -0.00654034 0.00375415 0.00350123 -0.00970906 -0.00645265 -0.00236145 -1.63092e-05 0.00129183
13.0 -0.0100872 -0.00365563 0.00643154 0.0068714 -0.00825935 0.00138795 0.0118266 -0.0104166 -0.0096577 -0.00547607 -0.00269895 -0.00112831
14.0 -0.0141613 -0.0075027 0.0066586 0.010832 -0.0104099 -0.00042205 0.0227915 -0.0112093 -0.0125611 -0.00804478 -0.004842 -0.00299277
15.0 -0.0169199 -0.00566094 0.0112589 0.0112904 -0.0140894 0.00279899 0.0349416 -0.0102006 -0.0118468 -0.00634918 -0.00295738 -0.000876803
16.0 -0.0192579 -0.000912657 0.0183452 0.0100853 -0.0188015 0.00871628 0.0476498 -0.0089123 -0.00918268 -0.00219749 0.00122045 0.00348963
17.0 -0.0200759 0.0014249 0.0215008 0.00932551 -0.0207884 0.0114629 0.0559161 -0.0107261 -0.00937263 -0.000922743 0.00292312 0.00549942
18.0 -0.0231556 0.00306491 0.0262206 0.0100454 -0.0246881 0.0146427 0.062913 -0.016212 -0.0117554 -0.000581396 0.00426208 0.00748748
19.0 -0.0268769 -0.000766013 0.0261109 0.0138215 -0.0264939 0.0126724 0.0684323 -0.0258273 -0.0188948 -0.00503576 0.00145823 0.00553858
20.0 -0.0297318 -0.00492129 0.0248105 0.0173266 -0.0272712 0.00994462 0.0799394 -0.032608 -0.0250978 -0.00956387 -0.00174188 0.00299486
21.0 -0.0335161 -0.0100047 0.0235114 0.0217604 -0.0285137 0.00675335 0.0935017 -0.0352043 -0.03055 -0.0144646 -0.00560092 -0.000357532
22.0 -0.0359222 -0.00960343 0.0263188 0.0227628 -0.0311205 0.00835769 0.112249 -0.0365021 -0.0338753 -0.0166424 -0.00676544 -0.000962492
23.0 -0.0330792 -0.00180827 0.0312709 0.0174437 -0.032175 0.0147313 0.129353 -0.0318923 -0.0309018 -0.0132036 -0.0032002 0.00272549
24.0 -0.0302229 0.00667565 0.0368985 0.0117736 -0.0335607 0.0217871 0.132704 -0.0353337 -0.0311543 -0.0107709 0.000229847 0.00673904
25.0 -0.0188344 0.020277 0.0391114 -0.000721269 -0.0289729 0.0296942 0.117884 -0.0380487 -0.029134 -0.00641915 0.00548124 0.0123914
26.0 -0.00644628 0.0386884 0.0451346 -0.016121 -0.0257905 0.0419115 0.0921128 -0.0314429 -0.0204829 0.00291753 0.014494 0.0212425
27.0 0.0137342 0.0575332 0.043799 -0.0356337 -0.0150324 0.0506661 0.0775822 -0.00900425 -0.00483602 0.0145495 0.0240093 0.0295765
28.0 0.0308029 0.07872 0.0479171 -0.0547614 -0.00855708 0.0633185 0.0896612 0.0214004 0.0154253 0.029846 0.0362593 0.0403212
29.0 0.048424 0.0977463 0.0493223 -0.0730852 -0.000449134 0.0735343 0.0708004 0.0328765 0.0288482 0.0423152 0.0474261 0.0507401
30.0 0.0618132 0.115794 0.0539803 -0.0888034 0.00391644 0.0848869 0.042447 0.0416466 0.0429524 0.0560242 0.0595437 0.0620179
31.0 0.0695356 0.132819 0.0632831 -0.101177 0.00312625 0.0980508 0.0280296 0.0525135 0.0555359 0.0684089 0.0703811 0.0722431
32.0 0.072227 0.142766 0.0705393 -0.107497 0.000843849 0.106653 0.0310291 0.0635102 0.063237 0.0747971 0.0754628 0.0768536
33.0 0.07646 0.151924 0.0754644 -0.114192 0.000497835 0.113694 0.0049475 0.0633982 0.0672365 0.0800016 0.0806258 0.0820535
34.0 0.0787777 0.160139 0.0813609 -0.119458 -0.0012916 0.12075 -0.0218342 0.0589623 0.0689562 0.0837627 0.084787 0.0864949
35.0 0.0821493 0.169294 0.0871445 -0.125722 -0.00249757 0.128219 -0.0478092 0.0574705 0.0733785 0.0894629 0.0904487 0.0921714
36.0 0.0869091 0.174361 0.087452 -0.130635 -0.000271404 0.130907 -0.0931588 0.0471253 0.071634 0.0900713 0.0919867 0.0940961
37.0 0.0871385 0.181287 0.0941481 -0.134213 -0.00350483 0.137717 -0.122875 0.036568 0.0706579 0.0930083 0.0959799 0.0987314
38.0 0.0921346 0.187394 0.095259 -0.139764 -0.00156221 0.141326 -0.129518 0.046938 0.0782113 0.0981945 0.100136 0.102386
39.0 0.10172 0.183068 0.0813475 -0.142394 0.0101863 0.132208 -0.1571 0.044418 0.075485 0.093601 0.0963021 0.0984961
40.0 0.10958 0.181477 0.0718978 -0.145529 0.0188409 0.126688 -0.199256 0.0306663 0.070269 0.0896658 0.0937131 0.0962052
41.0 0.113935 0.184849 0.0709138 -0.149392 0.0215106 0.127881 -0.208801 0.0332135 0.0742283 0.0937608 0.0976554 0.100102
42.0 0.116829 0.196794 0.0799646 -0.156812 0.0184323 0.138379 -0.207431 0.0435998 0.0860219 0.106503 0.109254 0.11135
43.0 0.117657 0.206016 0.0883593 -0.161836 0.0146487 0.147188 -0.212969 0.0516138 0.0961256 0.117812 0.119426 0.121181
44.0 0.120213 0.215239 0.0950257 -0.167726 0.0125938 0.155132 -0.216989 0.0593875 0.104982 0.127406 0.128209 0.129645
45.0 0.128654 0.227773 0.0991187 -0.178214 0.0147679 0.163446 -0.239573 0.0552761 0.109313 0.134622 0.135833 0.137417
46.0 0.133946 0.234106 0.10016 -0.184026 0.0168929 0.167133 -0.253278 0.0532755 0.109616 0.136886 0.139001 0.140978
47.0 0.136161 0.236398 0.100238 -0.186279 0.0179615 0.168318 -0.252165 0.0559377 0.109413 0.137481 0.140286 0.142613
48.0 0.137098 0.238666 0.101569 -0.187882 0.0177645 0.170118 -0.244294 0.0607839 0.109133 0.137607 0.141002 0.1437
49.0 0.137566 0.237461 0.0998954 -0.187513 0.0188351 0.168678 -0.242282 0.061786 0.105148 0.134355 0.138842 0.142081
50.0 0.139423 0.234802 0.095379 -0.187112 0.0220218 0.16509 -0.241023 0.0681234 0.10577 0.132672 0.13679 0.139669
51.0 0.137401 0.235856 0.0984555 -0.186628 0.0194726 0.167156 -0.226903 0.0662523 0.101986 0.130072 0.134756 0.138069
52.0 0.134985 0.238375 0.10339 -0.18668 0.0157974 0.170883 -0.23108 0.0545675 0.0971166 0.129949 0.136174 0.140513
53.0 0.12881 0.240632 0.111821 -0.184721 0.00849457 0.176226 -0.265557 0.0271576 0.0863415 0.128195 0.137767 0.143988
54.0 0.116594 0.240376 0.123783 -0.178485 -0.00359451 0.18208 -0.294305 -0.0153368 0.0682207 0.121622 0.135578 0.144277
55.0 0.111431 0.236056 0.124624 -0.173744 -0.00659639 0.18034 -0.349692 -0.0752518 0.0420061 0.11011 0.130593 0.142465
56.0 0.117338 0.230834 0.113496 -0.174086 0.00192138 0.172165 -0.417762 -0.110334 0.0286259 0.105199 0.130201 0.143906
57.0 0.125253 0.242871 0.117618 -0.184062 0.00381744 0.180245 -0.441971 -0.129976 0.0282885 0.112523 0.139694 0.154277
58.0 0.135477 0.26407 0.128593 -0.199773 0.00344162 0.196332 -0.446911 -0.143681 0.0350437 0.126146 0.154087 0.168914
59.0 0.142783 0.278244 0.135462 -0.210513 0.00366052 0.206853 -0.44853 -0.151589 0.0429925 0.13759 0.16515 0.179707
60.0 0.148562 0.287648 0.139086 -0.218105 0.00473765 0.213367 -0.452395 -0.157652 0.0465604 0.14472 0.172742 0.187446
61.0 0.155881 0.290236 0.134356 -0.223059 0.0107627 0.212296 -0.449217 -0.158486 0.0508435 0.150086 0.178055 0.192466
62.0 0.155588 0.276063 0.120474 -0.215826 0.0175571 0.198268 -0.438488 -0.1619 0.0412279 0.138717 0.168142 0.183179
63.0 0.160256 0.258863 0.0986069 -0.20956 0.0308247 0.178735 -0.415249 -0.154903 0.038577 0.130059 0.15876 0.172922
64.0 0.170131 0.246649 0.0765177 -0.20839 0.0468068 0.161583 -0.39832 -0.149224 0.0418605 0.128269 0.155225 0.167804
65.0 0.178187 0.233303 0.0551159 -0.205745 0.0615355 0.144209 -0.377921 -0.131855 0.0505121 0.129063 0.15299 0.163373
66.0 0.180669 0.208385 0.0277166 -0.194527 0.076476 0.118051 -0.355093 -0.115362 0.0562287 0.126009 0.146825 0.155072
67.0 0.181085 0.185695 0.00460988 -0.18339 0.0882374 0.0951522 -0.331829 -0.106442 0.0592983 0.123199 0.142009 0.148713
68.0 0.1762 0.164258 -0.0119419 -0.170229 0.0940711 0.0761582 -0.308934 -0.105167 0.0607566 0.120044 0.137266 0.142533
69.0 0.171638 0.144996 -0.0266425 -0.158317 0.0991405 0.0591767 -0.305409 -0.131404 0.0464901 0.108014 0.128162 0.134328
70.0 0.168544 0.146209 -0.0223351 -0.157376 0.0954394 0.0619367 -0.290319 -0.133254 0.0556884 0.116438 0.135345 0.140593
71.0 0.170481 0.146779 -0.0237027 -0.15863 0.0970921 0.0615379 -0.28431 -0.137025 0.0614404 0.122994 0.141877 0.146778
72.0 0.172228 0.150543 -0.0216849 -0.161386 0.0969565 0.0644291 -0.276823 -0.133952 0.06927 0.132461 0.151379 0.156147
73.0 0.169369 0.153273 -0.0160958 -0.161321 0.0927324 0.0685887 -0.265132 -0.133405 0.0735003 0.141435 0.161797 0.167107
74.0 0.167094 0.147866 -0.0192281 -0.15748 0.0931609 0.0643187 -0.258335 -0.139829 0.0701326 0.142811 0.165904 0.172108
75.0 0.163073 0.147646 -0.0154264 -0.155359 0.0892495 0.0661098 -0.252704 -0.146316 0.0643436 0.141773 0.167573 0.175029
76.0 0.16066 0.153634 -0.00702678 -0.157147 0.0838435 0.0733034 -0.242196 -0.140752 0.0685654 0.147912 0.174211 0.181949
77.0 0.159084 0.155381 -0.00370317 -0.157232 0.0813934 0.0758387 -0.233123 -0.131636 0.0727811 0.150242 0.175873 0.183205
78.0 0.159785 0.160645 0.000860408 -0.160215 0.0794622 0.0807528 -0.222053 -0.123274 0.0774169 0.154505 0.180276 0.187571
79.0 0.16155 0.165944 0.00439444 -0.163747 0.0785776 0.0851693 -0.216617 -0.123447 0.0798996 0.160868 0.187963 0.195567
80.0 0.159304 0.170165 0.0108615 -0.164734 0.0742211 0.0905133 -0.209973 -0.123624 0.0826778 0.1675 0.195517 0.203367
81.0 0.156314 0.17525 0.0189352 -0.165782 0.0686895 0.0970924 -0.206279 -0.1279 0.0802374 0.170139 0.200171 0.2089
82.0 0.152962 0.180197 0.0272348 -0.16658 0.0628639 0.103716 -0.202035 -0.127255 0.080522 0.173465 0.204816 0.214163
83.0 0.153593 0.180589 0.0269962 -0.167091 0.0632985 0.103793 -0.199919 -0.126433 0.0809476 0.175206 0.207517 0.217106
84.0 0.155972 0.177518 0.0215466 -0.166745 0.0672125 0.0995324 -0.204117 -0.134869 0.071776 0.170094 0.205581 0.216407
85.0 0.153051 0.175945 0.0228943 -0.164498 0.0650782 0.0994196 -0.205842 -0.142107 0.066006 0.168755 0.20645 0.218165
86.0 0.141464 0.174853 0.0333891 -0.158158 0.0540374 0.104121 -0.200966 -0.149438 0.0575088 0.166003 0.205806 0.218794
87.0 0.12381 0.171064 0.0472536 -0.147437 0.0382784 0.109159 -0.187659 -0.153471 0.0388385  0.152 0.194486 0.210212
88.0 0.114946 0.174037 0.0590915 -0.144492 0.0279271 0.116564 -0.179061 -0.149065 0.0347169 0.149614 0.1925 0.209381
89.0 0.11207 0.172859 0.0607895 -0.142464 0.0256401 0.116824 -0.176587 -0.145084 0.0338017 0.147196 0.189863 0.206911
90.0 0.110047 0.17275 0.0627034 -0.141399 0.0236718 0.117727 -0.172912 -0.139491 0.036963 0.148675 0.190494 0.207012
91.0 0.10941 0.170877 0.0614668 -0.140143 0.0239716 0.116172 -0.169134 -0.131494 0.0426864 0.150904 0.19024 0.205132
92.0 0.112975 0.168036 0.0550609 -0.140506 0.0289571 0.111548 -0.163193 -0.115155 0.0564316 0.158106 0.192427 0.204373
93.0 0.115794 0.160691 0.0448967 -0.138243 0.0354487 0.102794 -0.157806 -0.101896 0.064139 0.158724 0.189476 0.199334
94.0 0.120543 0.145284 0.0247411 -0.132913 0.0479008 0.0850124 -0.164953 -0.108502 0.0541969 0.147145 0.179611 0.189522
95.0 0.11422 0.136617 0.0223973 -0.125419 0.0459113 0.0795072 -0.157396 -0.102477 0.0532637 0.142105 0.173244 0.18233
96.0 0.11109 0.125312 0.014222 -0.118201 0.048434 0.069767 -0.153486 -0.104599 0.0406152 0.126674 0.158771 0.168173
97.0 0.108819 0.107282 -0.00153705 -0.108051 0.055178 0.0528725 -0.154902 -0.109958 0.0235951 0.105771 0.138992 0.148931
98.0 0.102478 0.0962219 -0.00625635 -0.0993501 0.0543673 0.0449828 -0.144236 -0.104264 0.0186083 0.0955714 0.126884 0.135813
99.0 0.0884418 0.088116 -0.000325784 -0.0882789 0.0443838 0.0438951 -0.127064 -0.0947613 0.0142755 0.0861813 0.114755 0.123374
100.0 0.0707466 0.0828554 0.0121088 -0.076801 0.0293189 0.0474821 -0.10406 -0.0765742 0.0172642 0.080215 0.103438 0.110867
101.0 0.0529309 0.0769388 0.0240079 -0.0649349 0.0144615 0.0504733 -0.0789664 -0.0519158 0.0256453 0.0763838 0.0923934 0.0976912
102.0 0.0338913 0.0731041 0.0392128 -0.0534977 -0.00266076 0.0561584 -0.0514892 -0.0260682 0.0348709 0.0740769 0.0832358 0.0869251
103.0 0.0150045 0.0637931 0.0487886 -0.0393988 -0.016892 0.0562909 -0.0326247 -0.0124108 0.0273996 0.0571291 0.0636935 0.0682232
104.0 0.00235777 0.0517217 0.0493639 -0.0270397 -0.0235031 0.0505428 -0.0223293 -0.0076763 0.0131981 0.0368041 0.0434672 0.0497551
105.0 -0.00123073 0.0469531 0.0481839 -0.0228612 -0.0247073 0.0475685 -0.0221066 -0.0114304 0.00925126 0.0324115 0.0391374 0.0451836
106.0 -0.00418739 0.0459884 0.0501757 -0.0209005 -0.0271816 0.0480821 -0.0211786 -0.0134615 0.00838864 0.0315112 0.0376963 0.0434695
107.0 -0.00475593 0.0431181 0.047874 -0.0191811 -0.026315 0.045496 -0.0237281 -0.0173601 0.00509255 0.0281385 0.0346654 0.0405027
108.0 -0.00324415 0.0371107 0.0403549 -0.0169333 -0.0217995 0.0387328 -0.0287509 -0.0221006 -9.98633e-05 0.021763 0.0287352 0.0345127
109.0 -0.00306195 0.0314525 0.0345144 -0.0141953 -0.0187882 0.0329835 -0.0309709 -0.0248395 -0.00383344 0.0164834 0.0233173 0.0287925
110.0 -0.00311386 0.0175777 0.0206915 -0.00723191 -0.0119027 0.0191346 -0.0274069 -0.0181709 -0.00355069 0.00877699 0.0125183 0.0156423
111.0 -0.0032781 0.0125679 0.015846 -0.00464488 -0.00956202 0.0142069 -0.0183053 -0.00407767 0.00642197 0.0115854 0.0109848 0.0110024
112.0 -0.00340677 0.0134559 0.0168626 -0.00502455 -0.0101347 0.0151593 -0.0176686 -0.00210326 0.00916433 0.0136297 0.0122535 0.0116533
113.0 -0.00317279 0.0139464 0.0171192 -0.0053868 -0.010146 0.0155328 -0.0221631 -0.00783435 0.0052001 0.0115977 0.0116458 0.0118069
114.0 -0.00200246 0.0138184 0.0158209 -0.00590797 -0.00891167 0.0148196 -0.0284612 -0.0156617 -0.00049814 0.00851967 0.0106964 0.0119923
115.0 -0.00179971 0.0136178 0.0154175 -0.00590903 -0.0086086 0.0145176 -0.0320168 -0.0204805 -0.00385846 0.00670013 0.0100709 0.0120088
116.0 -0.00185612 0.0131473 0.0150034 -0.00564559 -0.00842978 0.0140754 -0.0352175 -0.0254652 -0.00774518 0.00439763 0.00909813 0.0117504
117.0 -0.00170127 0.010808 0.0125092 -0.00455334 -0.00710525 0.0116586 -0.0362794 -0.027181 -0.0096623 0.00227682 0.00732189 0.0100773
118.0 -0.00122149 0.00775612 0.00897761 -0.00326731 -0.00509955 0.00836687 -0.0376636 -0.0291268 -0.012091 -0.000493771 0.00502768 0.00789624
119.0 -0.000115006 0.00470924 0.00482425 -0.00229712 -0.00246963 0.00476674 -0.0388828 -0.0301324 -0.0136101 -0.00277605 0.00298342 0.00576645
120.0 -0.000395114 0.0025044 0.00289952 -0.00105464 -0.00164731 0.00270196 -0.0392716 -0.0316082 -0.0157769 -0.00521176 0.000922137 0.00384207
121.0 -0.000230196 -0.0011822 -0.000952004 0.000706198 0.000360904 -0.0010671 -0.0391805 -0.0317312 -0.0170438 -0.00769805 -0.00163335 0.00112239
122.0 -0.00119466 -0.00363842 -0.00244376 0.00241654 0.000624547 -0.00304109 -0.0371178 -0.0302529 -0.0167518 -0.00873893 -0.00327572 -0.000845805
123.0 -0.00173019 -0.00365463 -0.00192444 0.00269241 9.71204e-05 -0.00278953 -0.0354844 -0.0292325 -0.0157777 -0.00800853 -0.00288608 -0.000619068
124.0 -0.00164155 -0.00343317 -0.00179162 0.00253736 7.50317e-05 -0.00261239 -0.0352341 -0.0296042 -0.0156624 -0.00749254 -0.00223688 8.51809e-05
125.0 -0.0015629 -0.00317304 -0.00161014 0.00236797 2.36231e-05 -0.00239159 -0.0348545 -0.0297451 -0.0153818 -0.00690279 -0.00158774 0.000755456
126.0 -0.00167216 -0.00309223 -0.00142007 0.00238219 -0.000126043 -0.00225615 -0.0344172 -0.0299705 -0.0153008 -0.00655176 -0.00117143 0.00119961
127.0 -0.00183323 -0.00331391 -0.00148068 0.00257357 -0.000176276 -0.0023973 -0.0339324 -0.0301503 -0.0153183 -0.00640271 -0.000970647 0.00141751
128.0 -0.0020909 -0.00367797 -0.00158707 0.00288444 -0.000251913 -0.00263252 -0.0332825 -0.0302451 -0.0153859 -0.00637899 -0.000915441 0.00148197
129.0 -0.00235837 -0.00396379 -0.00160542 0.00316108 -0.000376475 -0.0027846 -0.0325448 -0.0302145 -0.0153604 -0.00629883 -0.00084134 0.00154985
130.0 -0.00267276 -0.00432556 -0.0016528 0.00349916 -0.000509981 -0.00298918 -0.0317654 -0.0301636 -0.0153787 -0.00629731 -0.00085308 0.00152934
131.0 -0.00302662 -0.00475225 -0.00172563 0.00388944 -0.000650494 -0.00323894 -0.0309514 -0.0300919 -0.0154339 -0.00636408 -0.000939999 0.00143123
132.0 -0.00341597 -0.00523484 -0.00181888 0.0043254 -0.000798545 -0.00352686 -0.0301085 -0.0300024 -0.0155224 -0.00649184 -0.00109407 0.00126381
133.0 -0.00383715 -0.00576669 -0.00192954 0.00480192 -0.000953805 -0.00384812 -0.0292381 -0.0298956 -0.0156403 -0.0066745 -0.00130897 0.00103362
134.0 -0.00428738 -0.00634164 -0.00205427 0.00531451 -0.00111656 -0.00419795 -0.0283427 -0.0297719 -0.0157845 -0.00690673 -0.00157889 0.000746615
135.0 -0.00476355 -0.00695592 -0.00219237 0.00585973 -0.00128559 -0.00457414 -0.0274259 -0.0296321 -0.0159525 -0.00718437 -0.00189932 0.000407452
136.0 -0.00526326 -0.00760488 -0.00234162 0.00643407 -0.00146082 -0.00497325 -0.0264921 -0.0294775 -0.0161419 -0.00750303 -0.00226538 2.11757e-05
137.0 -0.00578409 -0.00828505 -0.00250096 0.00703457 -0.00164157 -0.005393 -0.0255431 -0.0293105 -0.0163517 -0.00785973 -0.00267352 -0.00040841
138.0 -0.00632325 -0.00899276 -0.00266951 0.007658 -0.00182687 -0.00583113 -0.024582 -0.0291317 -0.0165799 -0.00825103 -0.00311997 -0.000877349
139.0 -0.00687921 -0.00972553 -0.00284632 0.00830237 -0.00201644 -0.00628592 -0.0236098 -0.028942 -0.0168252 -0.0086743 -0.00360166 -0.00138248
140.0 -0.00744958 -0.0104797 -0.00303012 0.00896464 -0.00220973 -0.00675491 -0.02263 -0.0287419 -0.0170855 -0.00912612 -0.00411496 -0.00192009
141.0 -0.00803264 -0.0112532 -0.00322052 0.0096429 -0.00240606 -0.00723684 -0.0216447 -0.0285338 -0.0173599 -0.00960419 -0.00465718 -0.00248729
142.0 -0.0086272 -0.0120436 -0.00341643 0.0103354 -0.00260538 -0.00773003 -0.0206554 -0.028319 -0.0176477 -0.0101064 -0.00522589 -0.00308158
143.0 -0.00923147 -0.0128496 -0.00361812 0.0110405 -0.00280668 -0.00823386 -0.0196638 -0.0280969 -0.0179473 -0.010631 -0.00581897 -0.00370075
144.0 -0.00984436 -0.0136679 -0.0038235 0.0117561 -0.00301043 -0.00874568 -0.0186704 -0.0278685 -0.0182571 -0.0111746 -0.00643311 -0.00434142
145.0 -0.0104643 -0.0144972 -0.0040329 0.0124808 -0.00321572 -0.00926507 -0.0176774 -0.027634 -0.0185763 -0.011736 -0.00706667 -0.00500188
146.0 -0.0110896 -0.0153363 -0.0042467 0.0132129 -0.00342144 -0.00979149 -0.0166872 -0.0273949 -0.0189043 -0.0123138 -0.00771813 -0.0056806
147.0 -0.0117188 -0.0161836 -0.00446476 0.0139512 -0.00362703 -0.0103242 -0.0157009 -0.0271531 -0.0192405 -0.0129064 -0.00838554 -0.00637546
148.0 -0.0123517 -0.0170372 -0.00468543 0.0146944 -0.00383315 -0.0108613 -0.0147181 -0.0269061 -0.0195831 -0.0135115 -0.00906653 -0.00708413
149.0 -0.0129863 -0.0178961 -0.00490979 0.0154412 -0.00403827 -0.0114029 -0.0137407 -0.0266572 -0.0199317 -0.0141277 -0.00975964 -0.00780511
150.0 -0.0136224 -0.0187597 -0.00513725 0.0161911 -0.00424259 -0.0119485 -0.0127684 -0.0264058 -0.0202858 -0.0147544 -0.010464 -0.00853752
151.0 -0.0142586 -0.0196262 -0.00536762 0.0169424 -0.0044455 -0.0124969 -0.0118037 -0.0261535 -0.0206448 -0.0153901 -0.0111778 -0.00927944
152.0 -0.0148944 -0.0204949 -0.00560046 0.0176946 -0.00464697 -0.0130477 -0.0108468 -0.0259004 -0.0210081 -0.0160332 -0.0118996 -0.0100293
153.0 -0.0155287 -0.0213642 -0.00583555 0.0184464 -0.00484656 -0.0135999 -0.00989806 -0.025646 -0.021374 -0.0166822 -0.0126276 -0.0107855
154.0 -0.016161 -0.0222337 -0.00607272 0.0191973 -0.00504412 -0.0141532 -0.0089577 -0.0253911 -0.0217426 -0.0173363 -0.0133609 -0.0115469
155.0 -0.0167903 -0.0231027 -0.00631239 0.0199465 -0.00523897 -0.0147076 -0.00802672 -0.0251364 -0.0221136 -0.0179949 -0.0140988 -0.012313
156.0 -0.0174157 -0.0239716 -0.00655591 0.0206936 -0.00542989 -0.0152638 -0.00710631 -0.0248831 -0.0224875 -0.0186581 -0.014841 -0.0130832
157.0 -0.018037 -0.0248375 -0.00680045 0.0214373 -0.0056183 -0.015819 -0.00619518 -0.0246306 -0.0228619 -0.0193228 -0.0155846 -0.0138548
158.0 -0.0186532 -0.0257001 -0.00704684 0.0221767 -0.0058032 -0.0163735 -0.00529387 -0.0243785 -0.0232363 -0.0199883 -0.0163289 -0.014627
159.0 -0.0192643 -0.0265589 -0.00729453 0.0229116 -0.0059849 -0.0169267 -0.0044024 -0.0241267 -0.02361 -0.0206538 -0.017073 -0.0153989
160.0 -0.0198696 -0.0274134 -0.00754381 0.0236415 -0.0061629 -0.0174786 -0.00352084 -0.0238766 -0.0239831 -0.0213185 -0.0178159 -0.0161696
161.0 -0.0204687 -0.0282638 -0.00779506 0.0243662 -0.00633682 -0.0180294 -0.00264955 -0.023628 -0.0243553 -0.0219823 -0.0185575 -0.0169389
162.0 -0.0210613 -0.0291091 -0.0080478 0.0250852 -0.00650673 -0.0185784 -0.00178924 -0.0233821 -0.0247268 -0.0226447 -0.0192971 -0.0177059
163.0 -0.0216464 -0.0299484 -0.008302 0.0257974 -0.0066722 -0.0191252 -0.000938651 -0.0231378 -0.0250963 -0.0233043 -0.0200333 -0.0184695
164.0 -0.0222238 -0.0307824 -0.00855857 0.0265031 -0.0068326 -0.0196705 -9.83543e-05 -0.0228954 -0.0254637 -0.0239609 -0.0207661 -0.0192294
165.0 -0.0227943 -0.0316101 -0.0088158 0.0272022 -0.00698926 -0.020213 0.000732934 -0.0226551 -0.0258288 -0.0246139 -0.0214945 -0.0199849
166.0 -0.0233568 -0.0324299 -0.00907306 0.0278934 -0.00714188 -0.0207515 0.00155511 -0.0224159 -0.0261901 -0.0252617 -0.0222172 -0.0207346
167.0 -0.0239114 -0.0332423 -0.00933086 0.0285768 -0.00729027 -0.0212866 0.00236936 -0.022178 -0.0265476 -0.0259042 -0.0229341 -0.0214783
168.0 -0.0244576 -0.0340472 -0.00958952 0.0292524 -0.00743406 -0.0218183 0.00317482 -0.0219418 -0.0269011 -0.026541 -0.0236447 -0.0222157
169.0 -0.0249955 -0.0348437 -0.00984819 0.0299196 -0.00757366 -0.0223459 0.00397264 -0.0217066 -0.0272502 -0.0271716 -0.0243484 -0.0229462
170.0 -0.0255254 -0.0356323 -0.0101069 0.0305788 -0.00770924 -0.0228696 0.00476387 -0.021472 -0.0275945 -0.0277955 -0.0250451 -0.0236696
171.0 -0.0260464 -0.0364122 -0.0103657 0.0312293 -0.00784034 -0.023389 0.005548 -0.0212382 -0.0279334 -0.0284121 -0.0257338 -0.0243849
172.0 -0.026559 -0.0371843 -0.0106253 0.0318716 -0.00796686 -0.0239048 0.00632536 -0.0210058 -0.0282681 -0.0290223 -0.0264156 -0.0250931
173.0 -0.0270626 -0.0379464 -0.0108839 0.0325045 -0.00808935 -0.0244151 0.00709722 -0.0207737 -0.0285968 -0.0296243 -0.0270885 -0.0257925
174.0 -0.0275575 -0.0386992 -0.0111417 0.0331283 -0.00820786 -0.0249205 0.00786394 -0.0205416 -0.0289194 -0.0302181 -0.0277528 -0.0264833
175.0 -0.0280432 -0.0394425 -0.0113993 0.0337429 -0.00832195 -0.0254209 0.00862685 -0.0203083 -0.0292351 -0.030803 -0.0284079 -0.027165
176.0 -0.0285201 -0.0401756 -0.0116556 0.0343478 -0.00843223 -0.0259156 0.00938567 -0.0200746 -0.0295441 -0.0313788 -0.0290536 -0.0278372
177.0 -0.0289884 -0.0408994 -0.0119109 0.0349439 -0.00853874 -0.0264051 0.0101419 -0.0198393 -0.0298459 -0.0319457 -0.0296902 -0.0285005
178.0 -0.0294489 -0.0416131 -0.0121642 0.035531 -0.00864236 -0.0268887 0.0108973 -0.0196015 -0.0301399 -0.0325031 -0.0303173 -0.0291545
179.0 -0.0299004 -0.0423174 -0.0124171 0.0361089 -0.00874163 -0.0273673 0.0116507 -0.019362 -0.0304265 -0.0330512 -0.030935 -0.0297993
180.0 -0.0303434 -0.0430117 -0.0126683 0.0366776 -0.00883757 -0.02784 0.0124028 -0.0191212 -0.0307066 -0.0335904 -0.0315434 -0.0304347
181.0 -0.030778 -0.0436958 -0.0129178 0.0372369 -0.00893009 -0.0283068 0.0131547 -0.0188779 -0.0309787 -0.0341199 -0.0321421 -0.0310606
182.0 -0.0312044 -0.0443696 -0.0131652 0.037787 -0.00901962 -0.0287674 0.0139078 -0.0186309 -0.0312422 -0.0346393 -0.0327308 -0.0316768
183.0 -0.0316224 -0.0450331 -0.0134107 0.0383277 -0.00910587 -0.0292219 0.0146619 -0.0183803 -0.0314971 -0.0351485 -0.0333095 -0.0322834
184.0 -0.0320325 -0.0456865 -0.013654 0.0388595 -0.00918922 -0.0296702 0.0154178 -0.0181267 -0.0317444 -0.0356481 -0.0338788 -0.0328806
185.0 -0.0324341 -0.0463293 -0.0138951 0.0393817 -0.0092695 -0.0301122 0.0161753 -0.0178695 -0.0319833 -0.0361377 -0.034438 -0.0334678
186.0 -0.0328281 -0.0469623 -0.0141342 0.0398952 -0.00934697 -0.0305482 0.0169362 -0.0176079 -0.0322138 -0.0366174 -0.0349877 -0.0340459
187.0 -0.0332149 -0.0475854 -0.0143705 0.0404002 -0.00942222 -0.0309779 0.0177012 -0.0173411 -0.0324354 -0.0370872 -0.0355279 -0.034615
188.0 -0.033594 -0.0481983 -0.0146044 0.0408962 -0.0094948 -0.0314014 0.0184703 -0.0170695 -0.0326482 -0.0375469 -0.0360585 -0.0351746
189.0 -0.0339658 -0.0488015 -0.0148356 0.0413836 -0.00956508 -0.0318186 0.019244 -0.0167925 -0.0328524 -0.037997 -0.0365799 -0.0357255
190.0 -0.0343303 -0.0493948 -0.0150644 0.0418626 -0.00963295 -0.0322296 0.0200229 -0.0165098 -0.0330475 -0.0384371 -0.0370919 -0.0362674
191.0 -0.0346878 -0.0499786 -0.0152908 0.0423332 -0.0096985 -0.0326347 0.020807 -0.016222 -0.0332344 -0.0388678 -0.0375949 -0.0368007
192.0 -0.0350388 -0.0505533 -0.0155145 0.0427961 -0.00976214 -0.0330339 0.0215976 -0.0159279 -0.0334126 -0.0392892 -0.0380894 -0.0373258
193.0 -0.0353835 -0.0511189 -0.0157354 0.0432512 -0.00982408 -0.0334272 0.0223945 -0.0156275 -0.0335822 -0.0397014 -0.0385754 -0.0378429
194.0 -0.0357217 -0.051676 -0.0159543 0.0436989 -0.00988373 -0.0338151 0.0231976 -0.0153212 -0.0337436 -0.0401049 -0.0390534 -0.0383523
195.0 -0.0360542 -0.0522248 -0.0161706 0.0441395 -0.00994179 -0.0341977 0.0240082 -0.0150079 -0.0338964 -0.0404999 -0.0395237 -0.0388547
196.0 -0.0363807 -0.0527653 -0.0163846 0.044573 -0.00999808 -0.034575 0.0248253 -0.0146886 -0.0340415 -0.0408865 -0.0399862 -0.0393497
197.0 -0.0367018 -0.053298 -0.0165962 0.0449999 -0.0100528 -0.0349471 0.0256502 -0.014362 -0.0341781 -0.0412647 -0.0404414 -0.0398379
198.0 -0.0370177 -0.0538236 -0.0168059 0.0454206 -0.0101059 -0.0353147 0.0264815 -0.0140301 -0.0343081 -0.041636 -0.0408902 -0.0403199
199.0 -0.0373286 -0.0543421 -0.0170134 0.0458353 -0.0101576 -0.0356777 0.02732 -0.0136917 -0.0344309 -0.0419999 -0.0413326 -0.0407959
200.0 -0.037635 -0.0548539 -0.0172189 0.0462445 -0.0102081 -0.0360364 0.0281659 -0.0133467 -0.0345467 -0.042357 -0.0417686 -0.0412662
201.0 -0.037937 -0.0553597 -0.0174227 0.0466484 -0.0102571 -0.0363912 0.0290188 -0.0129952 -0.0346554 -0.0427074 -0.0421991 -0.0417314
202.0 -0.038235 -0.05586 -0.0176249 0.0470475 -0.0103051 -0.0367425 0.0298789 -0.0126376 -0.0347581 -0.0430519 -0.0426244 -0.0421918
203.0 -0.0385293 -0.0563553 -0.017826 0.0474423 -0.0103517 -0.0370906 0.0307456 -0.0122739 -0.0348548 -0.0433909 -0.0430452 -0.0426481
204.0 -0.0388203 -0.056846 -0.0180256 0.0478331 -0.0103974 -0.0374358 0.0316188 -0.0119043 -0.034946 -0.0437249 -0.0434615 -0.0431003
205.0 -0.0391083 -0.0573323 -0.018224 0.0482203 -0.0104421 -0.0377782 0.0324983 -0.0115292 -0.0350321 -0.0440541 -0.0438739 -0.043549
206.0 -0.0393936 -0.057815 -0.0184214 0.0486043 -0.0104861 -0.0381182 0.0333836 -0.0111485 -0.0351134 -0.044379 -0.0442827 -0.0439944
207.0 -0.0396765 -0.0582945 -0.018618 0.0489855 -0.0105293 -0.0384562 0.0342745 -0.0107627 -0.0351904 -0.0447003 -0.0446885 -0.0444373
208.0 -0.0399576 -0.0587712 -0.0188136 0.0493644 -0.010572 -0.0387924 0.0351708 -0.0103717 -0.0352635 -0.0450181 -0.0450917 -0.0448778
209.0 -0.0402369 -0.0592458 -0.0190089 0.0497414 -0.010614 -0.0391274 0.0360714 -0.00997631 -0.0353331 -0.0453333 -0.0454926 -0.0453164
210.0 -0.0405151 -0.0597186 -0.0192035 0.0501168 -0.0106558 -0.039461 0.0369763 -0.00957614 -0.0353995 -0.0456458 -0.0458917 -0.0457534
211.0 -0.0407922 -0.0601898 -0.0193976 0.050491 -0.0106973 -0.0397937 0.0378849 -0.00917204 -0.0354633 -0.0459564 -0.0462893 -0.0461891
212.0 -0.0410688 -0.0606601 -0.0195914 0.0508645 -0.0107387 -0.0401257 0.0387966 -0.00876406 -0.0355249 -0.0462654 -0.0466858 -0.0466241
213.0 -0.0413451 -0.0611297 -0.0197847 0.0512374 -0.0107802 -0.0404572 0.0397108 -0.00835272 -0.0355845 -0.0465732 -0.0470816 -0.0470585
214.0 -0.0416214 -0.0615992 -0.0199779 0.0516103 -0.0108217 -0.0407885 0.040627 -0.00793819 -0.0356427 -0.0468801 -0.0474769 -0.0474925
215.0 -0.041898 -0.0620686 -0.0201706 0.0519833 -0.0108637 -0.0411196 0.0415442 -0.00752094 -0.0356999 -0.0471865 -0.0478721 -0.0479267
216.0 -0.0421752 -0.0625382 -0.0203631 0.0523567 -0.010906 -0.0414507 0.0424624 -0.007101 -0.0357559 -0.0474925 -0.0482671 -0.0483608
217.0 -0.0424531 -0.0630085 -0.0205554 0.0527308 -0.0109489 -0.0417819 0.0433801 -0.00667928 -0.0358119 -0.0477989 -0.0486627 -0.0487955
218.0 -0.0427322 -0.0634793 -0.0207471 0.0531058 -0.0109925 -0.0421132 0.0442971 -0.00625565 -0.0358676 -0.0481055 -0.0490589 -0.0492308
219.0 -0.0430124 -0.063951 -0.0209387 0.0534817 -0.0110369 -0.0424448 0.0452125 -0.00583073 -0.0359235 -0.0484127 -0.0494556 -0.0496667
220.0 -0.0432939 -0.0644236 -0.0211297 0.0538588 -0.0110821 -0.0427766 0.0461257 -0.0054047 -0.0359799 -0.0487208 -0.0498533 -0.0501035
221.0 -0.0435771 -0.064897 -0.0213198 0.0542371 -0.0111287 -0.0431084 0.0470359 -0.00497785 -0.0360369 -0.0490295 -0.0502518 -0.050541
222.0 -0.0438618 -0.0653714 -0.0215096 0.0546166 -0.0111761 -0.0434405 0.0479422 -0.0045508 -0.0360948 -0.0493395 -0.0506514 -0.0509796
223.0 -0.0441481 -0.0658465 -0.0216984 0.0549973 -0.0112249 -0.0437725 0.0488439 -0.0041239 -0.0361539 -0.0496506 -0.051052 -0.0514191
224.0 -0.0444362 -0.0663223 -0.0218862 0.0553792 -0.011275 -0.0441043 0.0497403 -0.00369688 -0.036214 -0.0499628 -0.0514536 -0.0518593
225.0 -0.0447258 -0.0667986 -0.0220728 0.0557622 -0.0113265 -0.0444357 0.0506306 -0.00327077 -0.0362755 -0.0502762 -0.051856 -0.0523003
226.0 -0.045017 -0.0672752 -0.0222581 0.0561461 -0.0113794 -0.0447666 0.0515139 -0.00284545 -0.0363384 -0.0505908 -0.0522595 -0.052742
227.0 -0.0453098 -0.0677516 -0.0224419 0.0565307 -0.0114339 -0.0450967 0.0523895 -0.0024214 -0.0364028 -0.0509063 -0.0526636 -0.0531842
228.0 -0.0456038 -0.0682278 -0.022624 0.0569158 -0.0114899 -0.0454259 0.0532566 -0.00199883 -0.0364686 -0.0512228 -0.0530683 -0.0536267
229.0 -0.0458991 -0.0687032 -0.0228041 0.0573011 -0.0115475 -0.0457537 0.0541146 -0.00157817 -0.0365362 -0.0515402 -0.0534733 -0.0540692
230.0 -0.0461953 -0.0691774 -0.0229821 0.0576864 -0.0116066 -0.0460798 0.0549624 -0.00115946 -0.0366049 -0.0518582 -0.0538786 -0.0545116
231.0 -0.0464923 -0.0696501 -0.0231578 0.0580712 -0.0116672 -0.046404 0.0557994 -0.000743273 -0.0366753 -0.0521767 -0.0542838 -0.0549536
232.0 -0.0467898 -0.0701207 -0.0233309 0.0584552 -0.0117294 -0.0467258 0.0566247 -0.000329823 -0.036747 -0.0524954 -0.0546885 -0.0553947
233.0 -0.0470874 -0.0705887 -0.0235013 0.0588381 -0.0117931 -0.047045 0.0574377 8.07304e-05 -0.03682 -0.0528144 -0.0550928 -0.0558349
234.0 -0.0473849 -0.0710536 -0.0236686 0.0592193 -0.0118582 -0.0473611 0.0582378 0.000488066 -0.0368943 -0.0531327 -0.0554959 -0.0562736
235.0 -0.047682 -0.0715148 -0.0238327 0.0595984 -0.0119247 -0.0476737 0.0590238 0.000891907 -0.0369698 -0.0534506 -0.0558977 -0.0567104
236.0 -0.0479783 -0.0719716 -0.0239934 0.0599749 -0.0119924 -0.0479825 0.0597952 0.00129171 -0.0370461 -0.0537677 -0.0562978 -0.0571451
237.0 -0.0482733 -0.0724238 -0.0241504 0.0603485 -0.0120615 -0.0482871 0.0605515 0.00168755 -0.0371233 -0.0540836 -0.0566959 -0.0575773
238.0 -0.0485668 -0.0728704 -0.0243036 0.0607186 -0.0121316 -0.048587 0.0612919 0.002079 -0.0372011 -0.0543979 -0.0570914 -0.0580064
239.0 -0.0488583 -0.0733109 -0.0244526 0.0610846 -0.0122028 -0.0488817 0.0620157 0.00246576 -0.0372797 -0.0547105 -0.0574841 -0.058432
240.0 -0.0491473 -0.0737447 -0.0245974 0.061446 -0.0122749 -0.0491711 0.0627222 0.0028476 -0.0373583 -0.0550206 -0.0578734 -0.0588537
241.0 -0.0494336 -0.0741713 -0.0247377 0.0618025 -0.012348 -0.0494545 0.063411 0.00322411 -0.0374374 -0.0553283 -0.0582589 -0.0592711
242.0 -0.0497166 -0.0745899 -0.0248733 0.0621533 -0.0124217 -0.0497316 0.0640813 0.0035953 -0.0375164 -0.0556328 -0.0586403 -0.0596836
243.0 -0.049996 -0.0750002 -0.0250042 0.0624981 -0.0124959 -0.0500022 0.0647327 0.00396048 -0.0375952 -0.055934 -0.0590171 -0.0600909
244.0 -0.0502713 -0.0754014 -0.0251301 0.0628364 -0.0125706 -0.0502658 0.0653646 0.00431984 -0.0376736 -0.0562315 -0.0593887 -0.0604923
245.0 -0.0505422 -0.0757931 -0.0252508 0.0631676 -0.0126457 -0.050522 0.0659765 0.00467257 -0.0377517 -0.0565249 -0.0597549 -0.0608879
246.0 -0.0508082 -0.0761745 -0.0253664 0.0634914 -0.0127209 -0.0507704 0.066568 0.00501891 -0.0378289 -0.0568139 -0.0601153 -0.0612766
247.0 -0.0510689 -0.0765454 -0.0254765 0.0638071 -0.0127962 -0.051011 0.0671385 0.0053583 -0.0379053 -0.0570977 -0.0604693 -0.0616582
248.0 -0.0513238 -0.0769051 -0.0255812 0.0641144 -0.0128713 -0.0512431 0.0676879 0.00569036 -0.0379809 -0.0573766 -0.0608165 -0.0620324
249.0 -0.0515727 -0.0772532 -0.0256805 0.0644129 -0.0129461 -0.0514668 0.0682156 0.00601523 -0.038055 -0.0576496 -0.0611565 -0.0623985
250.0 -0.0518151 -0.0775893 -0.0257741 0.0647022 -0.0130205 -0.0516817 0.0687214 0.00633261 -0.0381276 -0.0579168 -0.0614888 -0.0627562
251.0 -0.0520507 -0.0779128 -0.0258621 0.0649818 -0.0130943 -0.0518874 0.0692052 0.00664208 -0.0381986 -0.0581776 -0.0618131 -0.0631052
252.0 -0.0522792 -0.0782236 -0.0259444 0.0652514 -0.0131674 -0.052084 0.0696663 0.0069435 -0.038268 -0.0584318 -0.062129 -0.0634448
253.0 -0.0525001 -0.0785211 -0.026021 0.0655106 -0.0132395 -0.052271 0.0701047 0.00723646 -0.0383356 -0.0586791 -0.0624362 -0.0637749
254.0 -0.0527132 -0.0788051 -0.0260919 0.0657592 -0.0133106 -0.0524485 0.0705207 0.00752118 -0.0384008 -0.0589189 -0.062734 -0.064095
255.0 -0.0529182 -0.0790753 -0.0261572 0.0659968 -0.0133805 -0.0526162 0.0709135 0.00779744 -0.0384637 -0.0591512 -0.0630225 -0.0644049
256.0 -0.0531148 -0.0793315 -0.0262167 0.0662232 -0.0134491 -0.0527741 0.0712834 0.00806481 -0.0385243 -0.0593757 -0.0633011 -0.0647039
257.0 -0.0533028 -0.0795735 -0.0262707 0.0664381 -0.0135161 -0.0529221 0.0716304 0.00832319 -0.0385824 -0.0595918 -0.0635697 -0.0649921
258.0 -0.0534819 -0.0798009 -0.026319 0.0666414 -0.0135814 -0.0530599 0.0719546 0.00857267 -0.0386377 -0.0597995 -0.0638277 -0.0652689
259.0 -0.0536518 -0.0800136 -0.0263618 0.0668327 -0.013645 -0.0531877 0.0722556 0.00881298 -0.0386899 -0.0599985 -0.064075 -0.0655342
260.0 -0.0538125 -0.0802117 -0.0263992 0.0670121 -0.0137066 -0.0533054 0.0725341 0.00904415 -0.0387397 -0.0601886 -0.0643115 -0.0657875
261.0 -0.0539637 -0.0803948 -0.0264312 0.0671792 -0.0137662 -0.053413 0.0727898 0.00926608 -0.0387858 -0.0603693 -0.0645366 -0.0660289
262.0 -0.0541052 -0.080563 -0.0264578 0.0673341 -0.0138237 -0.0535104 0.073023 0.00947866 -0.0388288 -0.0605409 -0.0647503 -0.0662578
263.0 -0.054237 -0.0807162 -0.0264792 0.0674766 -0.0138789 -0.0535977 0.0732339 0.00968207 -0.0388684 -0.0607028 -0.0649524 -0.0664745
264.0 -0.0543589 -0.0808543 -0.0264954 0.0676066 -0.0139317 -0.0536749 0.073423 0.00987619 -0.0389044 -0.0608549 -0.0651426 -0.0666782
265.0 -0.0544708 -0.0809774 -0.0265066 0.0677241 -0.0139821 -0.053742 0.07359 0.0100608 -0.0389371 -0.0609974 -0.0653209 -0.0668693
266.0 -0.0545726 -0.0810854 -0.0265128 0.067829 -0.0140299 -0.0537991 0.0737358 0.0102363 -0.0389659 -0.0611296 -0.065487 -0.0670472
267.0 -0.0546645 -0.0811786 -0.0265141 0.0679215 -0.0140752 -0.0538463 0.0738605 0.0104026 -0.0389909 -0.0612518 -0.0656408 -0.0672121
268.0 -0.0547461 -0.0812566 -0.0265106 0.0680013 -0.0141178 -0.0538836 0.0739643 0.0105595 -0.0390119 -0.0613636 -0.0657823 -0.0673639
269.0 -0.0548175 -0.0813198 -0.0265023 0.0680687 -0.0141576 -0.0539111 0.0740479 0.0107077 -0.039029 -0.0614652 -0.0659114 -0.0675025
270.0 -0.0548788 -0.0813682 -0.0264894 0.0681235 -0.0141947 -0.0539288 0.0741115 0.0108467 -0.0390417 -0.0615561 -0.0660278 -0.0676275
271.0 -0.0549301 -0.081402 -0.0264719 0.0681661 -0.0142291 -0.053937 0.0741557 0.010977 -0.0390507 -0.0616366 -0.0661321 -0.0677395
272.0 -0.0549712 -0.0814212 -0.02645 0.0681962 -0.0142606 -0.0539356 0.0741811 0.0110987 -0.039055 -0.0617066 -0.0662234 -0.0678379
273.0 -0.0550024 -0.0814259 -0.0264236 0.0682141 -0.0142894 -0.0539247 0.0741878 0.0112118 -0.039055 -0.061766 -0.0663022 -0.0679231
274.0 -0.0550235 -0.0814163 -0.0263928 0.0682199 -0.0143153 -0.0539045 0.0741767 0.0113168 -0.0390508 -0.0618147 -0.0663684 -0.0679948
275.0 -0.0550348 -0.0813925 -0.0263577 0.0682136 -0.0143385 -0.0538751 0.0741479 0.0114133 -0.0390421 -0.0618528 -0.0664222 -0.0680533
276.0 -0.0550363 -0.0813547 -0.0263184 0.0681955 -0.0143589 -0.0538366 0.0741023 0.0115022 -0.0390288 -0.0618801 -0.0664633 -0.0680985
277.0 -0.0550281 -0.081303 -0.0262749 0.0681655 -0.0143766 -0.053789 0.0740403 0.0115835 -0.0390108 -0.0618969 -0.0664919 -0.0681306
278.0 -0.0550103 -0.0812376 -0.0262273 0.068124 -0.0143915 -0.0537324 0.0739626 0.0116569 -0.0389883 -0.0619031 -0.0665081 -0.0681495
279.0 -0.0549831 -0.0811586 -0.0261755 0.0680708 -0.0144038 -0.053667 0.0738694 0.0117233 -0.038961 -0.0618988 -0.0665121 -0.0681554
280.0 -0.0549465 -0.0810661 -0.0261196 0.0680063 -0.0144135 -0.0535928 0.0737615 0.0117828 -0.038929 -0.0618839 -0.0665037 -0.0681484
281.0 -0.0549007 -0.0809604 -0.0260597 0.0679306 -0.0144205 -0.05351 0.0736397 0.0118355 -0.0388921 -0.0618585 -0.0664832 -0.0681286
282.0 -0.0548459 -0.0808416 -0.0259957 0.0678438 -0.0144251 -0.0534187 0.073504 0.0118819 -0.0388503 -0.0618226 -0.0664506 -0.0680961
283.0 -0.0547821 -0.08071 -0.0259278 0.067746 -0.0144271 -0.0533189 0.0733555 0.0119224 -0.0388036 -0.0617763 -0.0664059 -0.0680511
284.0 -0.0547096 -0.0805655 -0.0258559 0.0676376 -0.0144268 -0.0532107 0.0731943 0.0119568 -0.0387518 -0.0617196 -0.0663494 -0.0679937
285.0 -0.0546284 -0.0804085 -0.0257801 0.0675184 -0.0144242 -0.0530943 0.0730211 0.0119858 -0.0386952 -0.0616529 -0.0662814 -0.067924
286.0 -0.0545388 -0.080239 -0.0257002 0.0673889 -0.0144193 -0.0529696 0.0728368 0.0120096 -0.0386335 -0.0615757 -0.0662017 -0.0678423
287.0 -0.0544407 -0.0800571 -0.0256164 0.0672489 -0.0144122 -0.0528368 0.0726412 0.0120284 -0.0385667 -0.0614886 -0.0661106 -0.0677486
288.0 -0.0543345 -0.0798632 -0.0255287 0.0670988 -0.0144029 -0.052696 0.0724355 0.0120427 -0.0384944 -0.0613914 -0.0660081 -0.067643
289.0 -0.0542202 -0.0796573 -0.0254371 0.0669387 -0.0143916 -0.0525472 0.0722197 0.0120526 -0.0384172 -0.0612842 -0.0658945 -0.067526
290.0 -0.0540979 -0.0794394 -0.0253415 0.0667687 -0.0143782 -0.0523905 0.0719944 0.0120587 -0.0383346 -0.0611674 -0.0657699 -0.0673975
291.0 -0.0539678 -0.0792098 -0.025242 0.0665888 -0.0143629 -0.0522259 0.0717599 0.0120609 -0.038247 -0.0610406 -0.0656343 -0.0672576
292.0 -0.0538302 -0.0789686 -0.0251385 0.0663994 -0.0143458 -0.0520536 0.0715171 0.0120602 -0.038154 -0.0609043 -0.0654881 -0.0671067
293.0 -0.0536848 -0.078716 -0.0250311 0.0662004 -0.0143268 -0.0518736 0.0712656 0.0120559 -0.0380555 -0.0607585 -0.0653313 -0.0669448
294.0 -0.0535321 -0.0784519 -0.0249198 0.065992 -0.0143062 -0.0516858 0.0710063 0.0120491 -0.0379517 -0.0606032 -0.0651641 -0.066772
295.0 -0.0533721 -0.0781765 -0.0248044 0.0657743 -0.0142838 -0.0514904 0.0707394 0.0120399 -0.0378425 -0.0604384 -0.0649866 -0.0665889
296.0 -0.0532049 -0.07789 -0.0246851 0.0655474 -0.0142599 -0.0512875 0.0704652 0.0120283 -0.0377278 -0.0602644 -0.064799 -0.0663951
297.0 -0.0530305 -0.0775923 -0.0245618 0.0653114 -0.0142343 -0.0510771 0.0701841 0.0120146 -0.0376078 -0.0600812 -0.0646014 -0.0661911
298.0 -0.0528492 -0.0772837 -0.0244345 0.0650664 -0.0142073 -0.0508591 0.0698964 0.0119994 -0.0374821 -0.0598889 -0.064394 -0.0659769
299.0 -0.0526609 -0.0769641 -0.0243032 0.0648125 -0.0141789 -0.0506337 0.0696018 0.0119827 -0.0373513 -0.0596877 -0.0641769 -0.065753
300.0 -0.0524659 -0.0766339 -0.024168 0.0645499 -0.014149 -0.0504009 0.0693011 0.0119646 -0.0372148 -0.0594776 -0.0639503 -0.0655191
301.0 -0.0522641 -0.0762928 -0.0240287 0.0642785 -0.0141177 -0.0501607 0.0689943 0.0119459 -0.0370727 -0.0592588 -0.0637141 -0.0652755
302.0 -0.0520557 -0.075941 -0.0238853 0.0639984 -0.0140852 -0.0499132 0.0686815 0.0119261 -0.0369253 -0.0590312 -0.0634688 -0.0650225
303.0 -0.0518407 -0.0755788 -0.0237381 0.0637098 -0.0140513 -0.0496585 0.0683626 0.0119055 -0.0367723 -0.0587952 -0.0632145 -0.0647603
304.0 -0.0516192 -0.075206 -0.0235869 0.0634126 -0.0140162 -0.0493965 0.0680381 0.0118848 -0.0366138 -0.0585506 -0.0629511 -0.0644888
305.0 -0.0513913 -0.0748229 -0.0234316 0.0631071 -0.0139798 -0.0491273 0.0677078 0.0118637 -0.03645 -0.0582978 -0.0626789 -0.0642084
306.0 -0.0511569 -0.0744294 -0.0232724 0.0627932 -0.0139422 -0.0488509 0.0673719 0.0118427 -0.0362805 -0.0580365 -0.0623979 -0.0639189
307.0 -0.0509163 -0.0740257 -0.0231094 0.062471 -0.0139035 -0.0485675 0.0670301 0.0118214 -0.0361056 -0.0577673 -0.0621086 -0.063621
308.0 -0.0506693 -0.0736117 -0.0229424 0.0621405 -0.0138635 -0.0482771 0.0666827 0.0118003 -0.0359254 -0.05749 -0.0618107 -0.0633143
309.0 -0.0504162 -0.0731878 -0.0227716 0.061802 -0.0138223 -0.0479797 0.0663298 0.0117796 -0.0357398 -0.0572047 -0.0615046 -0.0629992
310.0 -0.0501568 -0.0727538 -0.022597 0.0614553 -0.0137799 -0.0476754 0.0659709 0.0117591 -0.0355487 -0.0569117 -0.0611903 -0.0626759
311.0 -0.0498913 -0.0723099 -0.0224186 0.0611006 -0.0137364 -0.0473643 0.0656063 0.011739 -0.0353526 -0.0566111 -0.0608681 -0.0623445
312.0 -0.0496197 -0.0718562 -0.0222365 0.060738 -0.0136916 -0.0470464 0.0652359 0.0117192 -0.0351511 -0.0563027 -0.0605378 -0.0620051
313.0 -0.049342 -0.0713929 -0.0220509 0.0603674 -0.0136455 -0.0467219 0.0648592 0.0117 -0.0349444 -0.055987 -0.0602001 -0.0616577
314.0 -0.0490582 -0.0709199 -0.0218617 0.059989 -0.0135982 -0.0463908 0.0644764 0.0116811 -0.0347325 -0.0556639 -0.0598546 -0.0613028
315.0 -0.0487684 -0.0704375 -0.0216691 0.059603 -0.0135497 -0.0460533 0.0640876 0.0116627 -0.0345157 -0.0553336 -0.0595017 -0.0609402
316.0 -0.0484726 -0.0699457 -0.0214731 0.0592092 -0.0134997 -0.0457094 0.0636922 0.0116448 -0.0342938 -0.0549961 -0.0591415 -0.0605703
317.0 -0.0481708 -0.0694447 -0.0212739 0.0588078 -0.0134484 -0.0453593 0.0632905 0.0116274 -0.0340669 -0.0546519 -0.0587741 -0.060193
318.0 -0.0478631 -0.0689347 -0.0210716 0.0583989 -0.0133958 -0.0450031 0.062882 0.0116104 -0.0338354 -0.0543005 -0.0583994 -0.0598085
319.0 -0.0475495 -0.0684156 -0.0208661 0.0579825 -0.0133417 -0.0446409 0.0624666 0.0115935 -0.0335989 -0.0539426 -0.058018 -0.0594171
320.0 -0.0472299 -0.0678878 -0.0206579 0.0575589 -0.013286 -0.0442728 0.0620445 0.011577 -0.0333579 -0.0535781 -0.0576298 -0.0590188
321.0 -0.0469046 -0.0673514 -0.0204468 0.057128 -0.0132289 -0.0438991 0.061615 0.0115605 -0.0331125 -0.0532073 -0.057235 -0.0586138
322.0 -0.0465734 -0.0668064 -0.020233 0.0566899 -0.0131702 -0.0435197 0.0611786 0.0115444 -0.0328624 -0.0528299 -0.0568335 -0.058202
323.0 -0.0462363 -0.0662532 -0.0200168 0.0562448 -0.0131098 -0.043135 0.0607346 0.0115279 -0.0326081 -0.0524463 -0.0564257 -0.0577838
324.0 -0.0458935 -0.0656919 -0.0197984 0.0557927 -0.0130476 -0.0427451 0.0602829 0.0115113 -0.0323495 -0.0520568 -0.0560116 -0.0573593
325.0 -0.045545 -0.0651226 -0.0195775 0.0553338 -0.0129838 -0.0423501 0.0598239 0.0114944 -0.0320868 -0.0516613 -0.0555912 -0.0569285
326.0 -0.0451908 -0.0645456 -0.0193548 0.0548682 -0.012918 -0.0419502 0.0593569 0.0114771 -0.0318201 -0.05126 -0.0551649 -0.0564916
327.0 -0.044831 -0.0639611 -0.0191302 0.0543961 -0.0128504 -0.0415456 0.0588821 0.0114591 -0.0315495 -0.050853 -0.0547327 -0.0560488
328.0 -0.0444655 -0.0633693 -0.0189038 0.0539174 -0.0127809 -0.0411366 0.0583992 0.0114403 -0.0312752 -0.0504406 -0.0542947 -0.0556001
329.0 -0.0440945 -0.0627704 -0.0186759 0.0534325 -0.0127093 -0.0407232 0.0579083 0.0114205 -0.0309973 -0.0500228 -0.0538511 -0.0551456
330.0 -0.043718 -0.0621647 -0.0184467 0.0529413 -0.0126356 -0.0403057 0.057409 0.0113996 -0.030716 -0.0495998 -0.0534021 -0.0546857
331.0 -0.043336 -0.0615522 -0.0182162 0.0524441 -0.0125599 -0.0398842 0.0569018 0.0113777 -0.0304313 -0.0491715 -0.0529474 -0.05422
332.0 -0.0429487 -0.0609335 -0.0179847 0.0519411 -0.012482 -0.0394591 0.0563862 0.0113539 -0.0301433 -0.0487383 -0.0524877 -0.0537492
333.0 -0.0425561 -0.0603085 -0.0177524 0.0514323 -0.0124018 -0.0390304 0.0558623 0.0113287 -0.0298523 -0.0483001 -0.0520227 -0.053273
334.0 -0.0421582 -0.0596777 -0.0175194 0.050918 -0.0123194 -0.0385986 0.0553303 0.0113016 -0.0295584 -0.0478576 -0.0515528 -0.0527918
335.0 -0.0417552 -0.0590413 -0.017286 0.0503983 -0.0122346 -0.0381637 0.0547897 0.0112725 -0.0292618 -0.0474103 -0.0510779 -0.0523056
336.0 -0.0413472 -0.0583995 -0.0170523 0.0498734 -0.0121475 -0.0377259 0.0542412 0.0112413 -0.0289623 -0.0469588 -0.0505983 -0.0518146
337.0 -0.0409342 -0.0577526 -0.0168184 0.0493434 -0.0120579 -0.0372855 0.0536846 0.0112077 -0.0286606 -0.0465028 -0.050114 -0.0513187
338.0 -0.0405163 -0.0571009 -0.0165845 0.0488086 -0.0119659 -0.0368427 0.0531198 0.0111717 -0.0283563 -0.0460428 -0.0496252 -0.0508183
339.0 -0.0400939 -0.0564446 -0.0163508 0.0482692 -0.0118715 -0.0363977 0.0525471 0.0111327 -0.0280501 -0.0455788 -0.0491321 -0.0503135
340.0 -0.0396666 -0.0557842 -0.0161176 0.0477254 -0.0117745 -0.0359509 0.0519664 0.011091 -0.0277418 -0.0451111 -0.0486348 -0.0498043
341.0 -0.039235 -0.0551197 -0.0158847 0.0471774 -0.0116751 -0.0355022 0.0513784 0.0110463 -0.0274314 -0.0446395 -0.0481332 -0.0492908
342.0 -0.038799 -0.0544516 -0.0156526 0.0466253 -0.0115732 -0.0350521 0.0507828 0.0109986 -0.0271192 -0.0441646 -0.0476278 -0.0487733
343.0 -0.0383589 -0.0537802 -0.0154213 0.0460695 -0.0114688 -0.0346008 0.0501799 0.0109477 -0.0268055 -0.0436862 -0.0471185 -0.0482518
344.0 -0.0379146 -0.0531056 -0.015191 0.0455101 -0.0113618 -0.0341483 0.0495703 0.0108932 -0.0264904 -0.0432047 -0.0466056 -0.0477266
345.0 -0.0374665 -0.0524283 -0.0149618 0.0449474 -0.0112523 -0.0336951 0.0489537 0.0108355 -0.0261739 -0.04272 -0.0460891 -0.0471977
346.0 -0.0370147 -0.0517485 -0.0147338 0.0443816 -0.0111404 -0.0332411 0.0483306 0.0107739 -0.0258563 -0.0422325 -0.0455692 -0.0466653
347.0 -0.0365594 -0.0510666 -0.0145072 0.043813 -0.0110261 -0.0327869 0.0477013 0.0107088 -0.0255376 -0.0417423 -0.045046 -0.0461296
348.0 -0.0361007 -0.0503827 -0.014282 0.0432417 -0.0109094 -0.0323324 0.0470663 0.0106401 -0.0252179 -0.0412493 -0.0445197 -0.0455905
349.0 -0.0356389 -0.0496974 -0.0140585 0.0426681 -0.0107902 -0.0318779 0.0464256 0.0105676 -0.0248974 -0.040754 -0.0439906 -0.0450485
350.0 -0.0351741 -0.0490108 -0.0138366 0.0420925 -0.0106687 -0.0314237 0.0457798 0.0104913 -0.0245762 -0.0402565 -0.0434586 -0.0445036
351.0 -0.0347066 -0.0483231 -0.0136165 0.0415149 -0.010545 -0.0309698 0.0451289 0.010411 -0.0242548 -0.0397569 -0.0429242 -0.0439561
352.0 -0.0342366 -0.0476349 -0.0133983 0.0409357 -0.0104192 -0.0305166 0.0444742 0.0103273 -0.0239327 -0.0392551 -0.042387 -0.0434058
353.0 -0.0337643 -0.0469463 -0.013182 0.0403553 -0.0102911 -0.0300641 0.043815 0.0102394 -0.0236105 -0.0387518 -0.0418477 -0.0428532
354.0 -0.03329 -0.0462577 -0.0129678 0.0397738 -0.0101611 -0.0296127 0.0431523 0.0101476 -0.0232881 -0.0382469 -0.0413063 -0.0422985
355.0 -0.0328137 -0.0455694 -0.0127556 0.0391916 -0.0100291 -0.0291625 0.0424866 0.0100523 -0.0229658 -0.0377404 -0.040763 -0.0417417
356.0 -0.032336 -0.0448816 -0.0125456 0.0386088 -0.00989522 -0.0287136 0.0418183 0.00995326 -0.0226435 -0.0372328 -0.040218 -0.0411832
357.0 -0.031857 -0.0441947 -0.0123377 0.0380258 -0.00975961 -0.0282662 0.0411475 0.00985041 -0.0223216 -0.0367242 -0.0396714 -0.0406229
358.0 -0.0313767 -0.0435089 -0.0121322 0.0374428 -0.00962227 -0.0278205 0.0404747 0.00974375 -0.0219999 -0.0362145 -0.0391236 -0.0400613
359.0 -0.0308957 -0.0428246 -0.0119289 0.0368602 -0.00948342 -0.0273767 0.0398008 0.00963385 -0.0216787 -0.0357043 -0.0385746 -0.0394985
360.0 -0.0304142 -0.0421421 -0.0117279 0.0362781 -0.00934311 -0.026935 0.039126 0.00952041 -0.0213581 -0.0351935 -0.0380246 -0.0389347
361.0 -0.0299323 -0.0414616 -0.0115293 0.0356969 -0.00920151 -0.0264954 0.0384507 0.00940358 -0.0210383 -0.0346825 -0.037474 -0.0383701
362.0 -0.0294505 -0.0407835 -0.011333 0.035117 -0.00905873 -0.0260582 0.0377757 0.00928358 -0.0207194 -0.0341713 -0.0369228 -0.0378049
363.0 -0.0289688 -0.0401079 -0.0111391 0.0345383 -0.00891483 -0.0256235 0.0371011 0.00916061 -0.0204012 -0.0336601 -0.0363713 -0.0372393
364.0 -0.0284877 -0.0394352 -0.0109476 0.0339615 -0.00877006 -0.0251914 0.0364274 0.00903453 -0.0200842 -0.0331493 -0.0358198 -0.0366737
365.0 -0.0280073 -0.0387657 -0.0107584 0.0333865 -0.00862441 -0.0247621 0.0357554 0.0089057 -0.0197684 -0.032639 -0.0352685 -0.0361082
366.0 -0.027528 -0.0380996 -0.0105716 0.0328138 -0.00847817 -0.0243356 0.0350852 0.00877428 -0.0194537 -0.0321292 -0.0347175 -0.035543
367.0 -0.02705 -0.0374373 -0.0103872 0.0322436 -0.00833138 -0.0239123 0.0344174 0.00864032 -0.0191406 -0.0316204 -0.0341673 -0.0349785
368.0 -0.0265736 -0.0367788 -0.0102053 0.0316762 -0.00818417 -0.023492 0.0337525 0.00850403 -0.0188288 -0.0311128 -0.0336177 -0.0344147
369.0 -0.0260991 -0.0361247 -0.0100256 0.0311119 -0.00803673 -0.0230751 0.0330911 0.00836568 -0.0185186 -0.0306064 -0.0330694 -0.0338521
370.0 -0.0256267 -0.0354749 -0.00984824 0.0305508 -0.00788921 -0.0226616 0.0324333 0.00822536 -0.0182101 -0.0301015 -0.0325223 -0.0332908
371.0 -0.0251566 -0.03483 -0.00967335 0.0299933 -0.00774162 -0.0222517 0.0317796 0.00808311 -0.0179036 -0.0295984 -0.031977 -0.0327312
372.0 -0.0246892 -0.0341899 -0.00950068 0.0294396 -0.00759428 -0.0218453 0.0311306 0.00793947 -0.0175988 -0.0290972 -0.0314333 -0.0321733
373.0 -0.0242248 -0.0335551 -0.00933031 0.0288899 -0.00744723 -0.0214427 0.0304868 0.0077944 -0.0172961 -0.0285981 -0.0308917 -0.0316175
374.0 -0.0237634 -0.0329256 -0.0091622 0.0283445 -0.00730062 -0.0210439 0.029848 0.00764803 -0.0169953 -0.0281014 -0.0303525 -0.0310641
375.0 -0.0233055 -0.0323019 -0.00899634 0.0278037 -0.00715459 -0.0206491 0.0292154 0.00750069 -0.0166969 -0.0276072 -0.0298159 -0.0305133
376.0 -0.0228512 -0.031684 -0.00883276 0.0272676 -0.00700922 -0.0202584 0.0285888 0.00735272 -0.0164006 -0.0271159 -0.0292821 -0.0299654
377.0 -0.0224008 -0.0310721 -0.00867125 0.0267364 -0.00686478 -0.0198717 0.0279685 0.00720387 -0.0161068 -0.0266274 -0.0287512 -0.0294205
378.0 -0.0219544 -0.0304665 -0.00851207 0.0262105 -0.00672119 -0.0194893 0.0273554 0.00705473 -0.0158154 -0.0261422 -0.0282237 -0.0288791
379.0 -0.0215124 -0.0298674 -0.008355 0.0256899 -0.00657871 -0.0191112 0.0267492 0.00690521 -0.0155266 -0.0256604 -0.0276997 -0.0283412
380.0 -0.0210749 -0.0292749 -0.00820008 0.0251749 -0.00643739 -0.0187375 0.0261505 0.00675572 -0.0152404 -0.0251821 -0.0271794 -0.0278071
381.0 -0.0206421 -0.0286893 -0.00804724 0.0246657 -0.00629742 -0.0183683 0.0255595 0.00660631 -0.0149569 -0.0247077 -0.0266632 -0.0272772
382.0 -0.0202141 -0.0281107 -0.00789652 0.0241624 -0.00615881 -0.0180036 0.0249766 0.00645732 -0.0146762 -0.0242372 -0.0261511 -0.0267515
383.0 -0.0197913 -0.0275392 -0.00774789 0.0236652 -0.0060217 -0.0176435 0.0244019 0.00630856 -0.0143984 -0.0237708 -0.0256434 -0.0262304
384.0 -0.0193738 -0.0269751 -0.0076013 0.0231744 -0.00588624 -0.0172882 0.0238356 0.00616046 -0.0141236 -0.0233089 -0.0251405 -0.0257142
385.0 -0.0189616 -0.0264183 -0.00745676 0.02269 -0.00575241 -0.0169375 0.0232781 0.00601336 -0.0138518 -0.0228513 -0.0246423 -0.0252028
386.0 -0.0185551 -0.0258692 -0.00731418 0.0222121 -0.00562044 -0.0165917 0.0227294 0.00586707 -0.0135832 -0.0223986 -0.0241493 -0.0246966
387.0 -0.0181542 -0.025328 -0.00717376 0.0217411 -0.00549022 -0.0162509 0.0221897 0.00572183 -0.0133178 -0.0219508 -0.0236615 -0.024196
388.0 -0.0177592 -0.0247943 -0.00703514 0.0212768 -0.00536204 -0.0159147 0.0216594 0.00557794 -0.0130555 -0.0215079 -0.0231791 -0.0237008
389.0 -0.0173702 -0.0242688 -0.00689864 0.0208195 -0.00523577 -0.0155837 0.0211383 0.00543539 -0.0127966 -0.0210702 -0.0227024 -0.0232115
390.0 -0.0169872 -0.0237514 -0.00676415 0.0203693 -0.00511155 -0.0152578 0.0206266 0.00529424 -0.0125411 -0.020638 -0.0222315 -0.0227282
391.0 -0.0166105 -0.0232419 -0.00663143 0.0199262 -0.00498953 -0.0149367 0.0201247 0.00515485 -0.0122889 -0.020211 -0.0217664 -0.0222508
392.0 -0.01624 -0.0227408 -0.00650079 0.0194904 -0.00486961 -0.0146208 0.0196322 0.00501721 -0.0120404 -0.0197898 -0.0213076 -0.0217799
393.0 -0.0158759 -0.022248 -0.00637218 0.019062 -0.00475185 -0.0143101 0.0191495 0.00488122 -0.0117954 -0.0193743 -0.0208551 -0.0213155
394.0 -0.0155182 -0.0217636 -0.00624536 0.0186409 -0.00463642 -0.0140045 0.0186766 0.00474728 -0.0115539 -0.0189647 -0.0204089 -0.0208576
395.0 -0.015167 -0.0212874 -0.00612046 0.0182272 -0.00452325 -0.0137039 0.0182136 0.00461554 -0.0113159 -0.0185609 -0.0199692 -0.0204064
396.0 -0.0148222 -0.0208199 -0.0059977 0.0178211 -0.00441227 -0.0134088 0.0177602 0.00448564 -0.0110818 -0.0181634 -0.0195363 -0.0199623
397.0 -0.0144842 -0.0203609 -0.00587672 0.0174225 -0.00430372 -0.0131188 0.0173167 0.00435789 -0.0108514 -0.0177719 -0.0191101 -0.0195249
398.0 -0.0141526 -0.0199102 -0.00575756 0.0170314 -0.00419753 -0.0128339 0.0168832 0.00423262 -0.0106245 -0.0173866 -0.0186907 -0.0190946
399.0 -0.0138277 -0.0194683 -0.00564052 0.016648 -0.00409361 -0.0125544 0.0164593 0.00410951 -0.0104017 -0.0170078 -0.0182783 -0.0186716
400.0 -0.0135095 -0.0190348 -0.00552527 0.0162721 -0.00399212 -0.01228 0.0160452 0.00398872 -0.0101825 -0.0166353 -0.0178729 -0.0182557
401.0 -0.0131979 -0.0186099 -0.00541201 0.0159039 -0.00389293 -0.0120109 0.0156409 0.00387045 -0.00996716 -0.0162692 -0.0174746 -0.0178471
402.0 -0.0128929 -0.0181934 -0.00530056 0.0155431 -0.00379615 -0.011747 0.0152461 0.00375453 -0.00975559 -0.0159096 -0.0170834 -0.0174459
403.0 -0.0125945 -0.0177856 -0.00519117 0.0151901 -0.00370165 -0.0114884 0.0148609 0.00364103 -0.00954801 -0.0155567 -0.0166996 -0.0170522
404.0 -0.0123026 -0.0173863 -0.00508361 0.0148445 -0.00360952 -0.0112349 0.0144853 0.00353012 -0.00934418 -0.0152102 -0.0163228 -0.0166659
405.0 -0.0120174 -0.0169953 -0.00497787 0.0145064 -0.00351978 -0.0109866 0.0141189 0.00342153 -0.00914429 -0.0148704 -0.0159533 -0.016287
406.0 -0.0117387 -0.0166129 -0.00487418 0.0141758 -0.00343225 -0.0107435 0.0137622 0.00331572 -0.00894817 -0.0145372 -0.0155912 -0.0159157
407.0 -0.0114664 -0.0162387 -0.00477228 0.0138525 -0.00334705 -0.0105055 0.0134143 0.00321218 -0.00875597 -0.0142106 -0.0152363 -0.0155518
408.0 -0.0112005 -0.0158729 -0.00467237 0.0135367 -0.00326409 -0.0102726 0.0130755 0.0031113 -0.00856763 -0.0138907 -0.0148888 -0.0151955
409.0 -0.0109411 -0.0155153 -0.00457424 0.0132282 -0.00318343 -0.0100448 0.0127459 0.00301284 -0.0083832 -0.0135773 -0.0145485 -0.0148467
410.0 -0.0106879 -0.015166 -0.00447811 0.0129269 -0.00310488 -0.00982205 0.012425 0.00291703 -0.00820246 -0.0132706 -0.0142154 -0.0145053
411.0 -0.0104409 -0.0148247 -0.00438381 0.0126328 -0.00302853 -0.00960424 0.0121125 0.00282353 -0.00802568 -0.0129704 -0.0138896 -0.0141714
412.0 -0.0102 -0.0144914 -0.00429141 0.0123457 -0.00295431 -0.00939142 0.0118089 0.00273262 -0.00785264 -0.0126769 -0.0135711 -0.0138449
413.0 -0.00996535 -0.0141662 -0.00420087 0.0120658 -0.00288224 -0.00918354 0.0115135 0.00264405 -0.00768343 -0.0123899 -0.0132597 -0.0135259
414.0 -0.0097366 -0.0138487 -0.00411214 0.0117927 -0.00281223 -0.00898044 0.0112263 0.00255792 -0.00751799 -0.0121094 -0.0129554 -0.0132141
415.0 -0.0095137 -0.0135389 -0.00402516 0.0115263 -0.00274427 -0.00878201 0.0109475 0.00247447 -0.00735605 -0.0118351 -0.0126581 -0.0129095
416.0 -0.00929666 -0.0132369 -0.00394021 0.0112668 -0.00267823 -0.00858855 0.0106761 0.00239294 -0.00719812 -0.0115674 -0.012368 -0.0126123
417.0 -0.00908533 -0.0129424 -0.00385707 0.0110139 -0.00261413 -0.00839974 0.0104126 0.00231391 -0.0070438 -0.0113061 -0.0120847 -0.0123222
418.0 -0.00887971 -0.0126553 -0.00377561 0.0107675 -0.00255205 -0.00821547 0.0101571 0.0022372 -0.00689301 -0.0110509 -0.0118083 -0.012039
419.0 -0.00867948 -0.0123755 -0.00369601 0.0105275 -0.00249174 -0.00803575 0.0099087 0.0021629 -0.00674574 -0.0108019 -0.0115387 -0.0117629
420.0 -0.0084847 -0.0121029 -0.00361817 0.0102938 -0.00243326 -0.00786052 0.00966738 0.00209053 -0.00660213 -0.0105591 -0.0112757 -0.0114936
421.0 -0.00829523 -0.0118373 -0.00354207 0.0100663 -0.00237658 -0.00768969 0.00943337 0.00202055 -0.0064619 -0.0103222 -0.0110194 -0.0112311
422.0 -0.00811107 -0.0115788 -0.00346772 0.00984493 -0.00232167 -0.00752325 0.00920651 0.00195274 -0.0063252 -0.0100914 -0.0107696 -0.0109754
423.0 -0.00793193 -0.0113271 -0.00339521 0.00962953 -0.00226836 -0.00736117 0.00898606 0.00188681 -0.00619198 -0.00986642 -0.0105263 -0.0107263
424.0 -0.00775784 -0.0110821 -0.00332429 0.00941999 -0.00221678 -0.00720321 0.0087721 0.0018229 -0.0060621 -0.00964726 -0.0102893 -0.0104837
425.0 -0.00758858 -0.0108436 -0.00325501 0.00921608 -0.00216678 -0.0070493 0.00856501 0.00176135 -0.00593533 -0.00943367 -0.0100584 -0.0102474
426.0 -0.00742407 -0.0106115 -0.00318746 0.0090178 -0.0021183 -0.0068995 0.00836399 0.00170158 -0.00581184 -0.00922572 -0.00983371 -0.0100174
427.0 -0.0072643 -0.0103859 -0.0031216 0.0088251 -0.00207135 -0.00675375 0.0081688 0.00164344 -0.00569173 -0.00902338 -0.00961507 -0.00979362
428.0 -0.00710917 -0.0101665 -0.00305732 0.00863783 -0.00202593 -0.00661191 0.00797978 0.00158751 -0.00557466 -0.0088264 -0.00940231 -0.0095759
429.0 -0.0069585 -0.00995313 -0.00299463 0.00845582 -0.00198194 -0.00647388 0.00779665 0.00153313 -0.00546075 -0.00863477 -0.00919539 -0.00936414
430.0 -0.006812 -0.00974545 -0.00293345 0.00827872 -0.00193928 -0.00633945 0.00761905 0.00148077 -0.00534961 -0.00844811 -0.00899391 -0.00915802
431.0 -0.00666973 -0.00954354 -0.00287381 0.00810664 -0.00189796 -0.00620868 0.00744678 0.0014301 -0.00524153 -0.00826666 -0.00879808 -0.00895768
432.0 -0.00653176 -0.00934751 -0.00281575 0.00793963 -0.00185801 -0.00608163 0.00727977 0.00138086 -0.00513652 -0.0080903 -0.00860778 -0.00876298
433.0 -0.00639781 -0.00915708 -0.00275928 0.00777744 -0.00181927 -0.00595818 0.00711796 0.0013333 -0.00503434 -0.00791887 -0.00842284 -0.00857382
434.0 -0.0062678 -0.00897197 -0.00270417 0.00761989 -0.00178182 -0.00583807 0.00696127 0.00128739 -0.00493491 -0.00775217 -0.0082431 -0.00838996
435.0 -0.00614154 -0.00879206 -0.00265052 0.0074668 -0.00174551 -0.00572129 0.00680965 0.00124321 -0.00483812 -0.00759009 -0.00806836 -0.00821127
436.0 -0.00601888 -0.00861705 -0.00259816 0.00731796 -0.00171036 -0.0056076 0.0066623 0.00120034 -0.0047439 -0.00743243 -0.00789845 -0.0080375
437.0 -0.00589992 -0.00844708 -0.00254715 0.0071735 -0.00167639 -0.00549711 0.00651957 0.00115891 -0.00465232 -0.00727927 -0.00773343 -0.00786875
438.0 -0.00578459 -0.00828235 -0.00249775 0.00703347 -0.00164342 -0.00539005 0.00638141 0.00111892 -0.00456347 -0.0071307 -0.00757336 -0.00770508
439.0 -0.00567268 -0.00812233 -0.00244964 0.00689751 -0.00161152 -0.00528598 0.00624757 0.0010802 -0.00447714 -0.00698644 -0.00741796 -0.00754618
440.0 -0.00556399 -0.00796673 -0.00240273 0.00676536 -0.00158063 -0.00518473 0.00611776 0.00104266 -0.00439318 -0.00684616 -0.0072669 -0.00739174
441.0 -0.00545848 -0.00781565 -0.00235717 0.00663707 -0.00155065 -0.00508641 0.005992 0.00100673 -0.00431149 -0.0067099 -0.00712022 -0.00724178
442.0 -0.00535616 -0.00766877 -0.00231262 0.00651247 -0.00152177 -0.0049907 0.00587037 0.00097212 -0.00423191 -0.00657739 -0.00697765 -0.00709606
443.0 -0.00525683 -0.00752625 -0.00226942 0.00639154 -0.0014937 -0.00489784 0.00575222 0.000938389 -0.00415479 -0.0064489 -0.00683939 -0.00695473
444.0 -0.00516056 -0.00738804 -0.00222748 0.0062743 -0.00146654 -0.00480776 0.00563785 0.00090584 -0.00407995 -0.00632425 -0.00670527 -0.00681763
445.0 -0.00506713 -0.00725381 -0.00218668 0.00616047 -0.00144023 -0.00472024 0.00552716 0.000874606 -0.00400719 -0.0062032 -0.00657508 -0.00668457
446.0 -0.00497641 -0.00712345 -0.00214704 0.00604993 -0.00141469 -0.00463524 0.00541945 0.000844079 -0.00393658 -0.0060857 -0.0064487 -0.0065554
447.0 -0.00488839 -0.00699694 -0.00210855 0.00594267 -0.00138992 -0.00455275 0.00531545 0.000814922 -0.00386783 -0.00597153 -0.00632599 -0.00643002
448.0 -0.00480302 -0.00687391 -0.00207088 0.00583847 -0.00136607 -0.00447239 0.00521467 0.000786832 -0.00380103 -0.0058607 -0.00620686 -0.00630828
449.0 -0.00472017 -0.0067544 -0.00203422 0.00573729 -0.00134298 -0.00439431 0.00511706 0.000759727 -0.00373615 -0.00575308 -0.00609121 -0.0061901
450.0 -0.00463964 -0.00663851 -0.00199887 0.00563908 -0.00132039 -0.00431869 0.00502211 0.000733364 -0.0036731 -0.00564862 -0.005979 -0.00607547
451.0 -0.00456152 -0.006526 -0.00196448 0.00554376 -0.00129852 -0.00424524 0.00493001 0.000707965 -0.00361193 -0.00554728 -0.00587014 -0.00596424
452.0 -0.00448589 -0.00641678 -0.00193089 0.00545134 -0.0012775 -0.00417384 0.00484099 0.000683417 -0.00355259 -0.005449 -0.00576457 -0.00585638
453.0 -0.00441246 -0.00631096 -0.0018985 0.00536171 -0.00125698 -0.00410473 0.00475479 0.000659697 -0.00349508 -0.00535376 -0.00566226 -0.00575186
454.0 -0.00434105 -0.00620794 -0.00186688 0.0052745 -0.00123708 -0.00403741 0.00467123 0.000637035 -0.00343893 -0.00526105 -0.00556275 -0.00565021
455.0 -0.00427172 -0.00610774 -0.00183602 0.00518973 -0.00121785 -0.00397188 0.0045897 0.000615063 -0.00338433 -0.00517096 -0.00546608 -0.00555147
456.0 -0.00420439 -0.00601031 -0.00180592 0.00510735 -0.00119923 -0.00390812 0.00451089 0.000593805 -0.00333133 -0.00508348 -0.00537219 -0.00545558
457.0 -0.00413898 -0.00591587 -0.0017769 0.00502743 -0.00118104 -0.00384638 0.00443449 0.000573263 -0.00327983 -0.00499862 -0.00528118 -0.00536263
458.0 -0.00407558 -0.00582431 -0.00174873 0.00494994 -0.00116342 -0.00378652 0.0043606 0.000553548 -0.00322998 -0.00491647 -0.00519302 -0.00527259
459.0 -0.00401406 -0.00573545 -0.00172139 0.00487475 -0.00114634 -0.00372842 0.00428868 0.00053449 -0.00318156 -0.00483671 -0.00510745 -0.00518521
460.0 -0.00395429 -0.00564907 -0.00169479 0.00480168 -0.00112975 -0.00367193 0.00421857 0.000515895 -0.00313453 -0.00475926 -0.00502436 -0.00510034
461.0 -0.00389614 -0.00556498 -0.00166884 0.00473056 -0.00111365 -0.00361691 0.00415068 0.000497848 -0.00308875 -0.0046839 -0.00494356 -0.00501782
462.0 -0.0038396 -0.00548316 -0.00164356 0.00466138 -0.00109802 -0.00356336 0.00408496 0.000480628 -0.00304418 -0.00461073 -0.00486511 -0.00493772
463.0 -0.00378462 -0.00540352 -0.0016189 0.00459407 -0.00108286 -0.00351121 0.00402148 0.000464489 -0.00300061 -0.00453946 -0.00478877 -0.0048598
464.0 -0.0037312 -0.00532627 -0.00159507 0.00452873 -0.00106807 -0.00346067 0.00395965 0.00044885 -0.00295833 -0.00447035 -0.00471476 -0.00478425
465.0 -0.00367945 -0.00525139 -0.00157194 0.00446542 -0.00105375 -0.00341167 0.0038992 0.000433161 -0.00291762 -0.00440349 -0.00464306 -0.00471102
466.0 -0.0036291 -0.00517854 -0.00154944 0.00440382 -0.00103983 -0.00336399 0.00384052 0.000417832 -0.00287796 -0.00433843 -0.00457335 -0.00463986
467.0 -0.0035802 -0.00510769 -0.00152749 0.00434395 -0.00102635 -0.00331759 0.00378361 0.000403151 -0.00283952 -0.00427537 -0.00450574 -0.00457081
468.0 -0.00353243 -0.00503885 -0.00150642 0.00428564 -0.001013 -0.00327264 0.0037284 0.000389493 -0.00280188 -0.00421395 -0.00443999 -0.00450369
469.0 -0.00348594 -0.00497186 -0.00148592 0.0042289 -0.00100001 -0.00322889 0.00367479 0.000376349 -0.00276518 -0.00415422 -0.00437604 -0.00443844
470.0 -0.0034409 -0.00490645 -0.00146555 0.00417368 -0.000987678 -0.003186 0.00362267 0.000363387 -0.00272957 -0.0040961 -0.00431381 -0.00437491
471.0 -0.00339705 -0.00484255 -0.0014455 0.0041198 -0.000975775 -0.00314403 0.00357228 0.000350879 -0.00269473 -0.00403936 -0.00425312 -0.00431298
472.0 -0.00335429 -0.0047806 -0.00142631 0.00406745 -0.000963994 -0.00310345 0.00352293 0.000338758 -0.00266093 -0.00398439 -0.0041943 -0.00425295
473.0 -0.00331266 -0.00472072 -0.00140806 0.00401669 -0.0009523 -0.00306439 0.00347467 0.000326929 -0.00262831 -0.00393123 -0.00413738 -0.00419485
474.0 -0.00327214 -0.0046624 -0.00139025 0.00396727 -0.000940944 -0.00302633 0.0034278 0.000315674 -0.00259651 -0.00387953 -0.00408203 -0.00413837
475.0 -0.00323282 -0.00460551 -0.00137269 0.00391916 -0.000930063 -0.0029891 0.0033823 0.000304727 -0.00256558 -0.0038292 -0.00402817 -0.00408338
476.0 -0.00319451 -0.00455002 -0.00135551 0.00387226 -0.000919498 -0.00295276 0.00333818 0.000294048 -0.00253539 -0.00378015 -0.00397567 -0.00402981
477.0 -0.00315711 -0.00449581 -0.0013387 0.00382646 -0.000909207 -0.00291726 0.00329541 0.000283985 -0.00250576 -0.00373225 -0.00392447 -0.00397759
478.0 -0.00312062 -0.00444299 -0.00132236 0.0037818 -0.000899129 -0.00288268 0.00325371 0.000274354 -0.00247689 -0.0036856 -0.00387463 -0.00392674
479.0 -0.00308495 -0.00439153 -0.00130658 0.00373824 -0.000889185 -0.00284905 0.00321275 0.000264825 -0.00244886 -0.00364028 -0.00382616 -0.00387729
480.0 -0.00305018 -0.00434126 -0.00129108 0.00369572 -0.000879548 -0.00281617 0.00317275 0.000255705 -0.00242145 -0.00359607 -0.00377892 -0.00382911
481.0 -0.00301647 -0.00429249 -0.00127602 0.00365448 -0.000870226 -0.00278425 0.00313398 0.000246802 -0.00239495 -0.00355321 -0.0037331 -0.00378235
482.0 -0.00298361 -0.00424512 -0.00126151 0.00361437 -0.000861052 -0.00275332 0.00309623 0.000238141 -0.00236918 -0.00351156 -0.00368856 -0.0037369
483.0 -0.0029516 -0.0041991 -0.00124749 0.00357535 -0.000852054 -0.0027233 0.00305957 0.000229868 -0.00234401 -0.00347103 -0.00364526 -0.00369275
484.0 -0.0029203 -0.00415391 -0.00123361 0.0035371 -0.000843344 -0.00269376 0.00302352 0.00022162 -0.0023195 -0.00343147 -0.00360295 -0.00364958
485.0 -0.00288959 -0.00410953 -0.00121994 0.00349956 -0.000834826 -0.00266473 0.00298831 0.00021367 -0.00229552 -0.00339276 -0.00356157 -0.00360734
486.0 -0.00285955 -0.00406615 -0.00120659 0.00346285 -0.000826482 -0.00263637 0.0029542 0.00020635 -0.00227185 -0.00335487 -0.00352114 -0.00356613
487.0 -0.00283037 -0.00402391 -0.00119354 0.00342714 -0.000818415 -0.00260872 0.00292108 0.000199384 -0.00224872 -0.00331793 -0.00348174 -0.00352597
488.0 -0.00280185 -0.00398288 -0.00118103 0.00339236 -0.000810407 -0.00258196 0.00288869 0.000192595 -0.00222626 -0.00328206 -0.00344346 -0.00348694
489.0 -0.00277404 -0.00394279 -0.00116875 0.00335842 -0.000802642 -0.00255577 0.00285701 0.000185845 -0.00220443 -0.00324711 -0.00340615 -0.0034489
490.0 -0.00274682 -0.00390364 -0.00115682 0.00332523 -0.000795003 -0.00253023 0.00282583 0.000179086 -0.00218316 -0.003213 -0.00336972 -0.00341176
491.0 -0.00272028 -0.00386534 -0.00114507 0.00329281 -0.000787603 -0.00250521 0.00279518 0.000172273 -0.00216262 -0.00317987 -0.00333429 -0.00337559
492.0 -0.00269434 -0.00382792 -0.00113359 0.00326113 -0.000780376 -0.00248076 0.00276527 0.000165798 -0.00214249 -0.00314754 -0.00329972 -0.00334031
493.0 -0.00266886 -0.00379135 -0.00112249 0.0032301 -0.000773188 -0.00245692 0.00273651 0.000160079 -0.00212247 -0.00311576 -0.00326586 -0.00330581
494.0 -0.00264389 -0.00375564 -0.00111175 0.00319976 -0.000766068 -0.0024337 0.0027084 0.000154657 -0.00210275 -0.00308461 -0.0032327 -0.00327204
495.0 -0.00261948 -0.00372062 -0.00110114 0.00317005 -0.000759172 -0.00241088 0.00268078 0.000149243 -0.00208366 -0.0030543 -0.00320038 -0.00323909
496.0 -0.00259567 -0.00368633 -0.00109066 0.003141 -0.000752506 -0.0023885 0.0026539 0.000143855 -0.00206513 -0.00302479 -0.00316888 -0.00320696
497.0 -0.00257236 -0.00365248 -0.00108012 0.00311242 -0.000746121 -0.0023663 0.00262757 0.000138611 -0.0020468 -0.00299567 -0.00313785 -0.00317534
498.0 -0.00254946 -0.00361931 -0.00106985 0.00308439 -0.000739809 -0.00234458 0.00260145 0.000133259 -0.0020289 -0.00296715 -0.00310743 -0.00314432
499.0 -0.00252708 -0.00358727 -0.00106019 0.00305717 -0.000733443 -0.00232373 0.00257563 0.000127977 -0.00201156 -0.00293955 -0.00307797 -0.00311428
500.0 -0.00250522 -0.00355622 -0.001051 0.00303072 -0.000727114 -0.00230361 0.00255071 0.000123276 -0.00199461 -0.00291279 -0.00304944 -0.00308521
501.0 -0.00248375 -0.00352563 -0.00104188 0.00300469 -0.000720936 -0.00228376 0.00252645 0.000118893 -0.00197793 -0.00288648 -0.00302142 -0.00305665
502.0 -0.00246266 -0.00349538 -0.00103272 0.00297902 -0.000714971 -0.00226405 0.00250275 0.000114543 -0.00196154 -0.00286056 -0.00299377 -0.00302847
503.0 -0.00244194 -0.00346561 -0.00102366 0.00295377 -0.00070914 -0.00224463 0.00247947 0.000110112 -0.00194545 -0.00283509 -0.00296663 -0.00300081
504.0 -0.00242172 -0.0034364 -0.00101469 0.00292906 -0.000703516 -0.00222554 0.00245666 0.000105805 -0.00192964 -0.00281017 -0.0029401 -0.00297378
505.0 -0.0024018 -0.00340784 -0.00100604 0.00290482 -0.000697884 -0.00220694 0.00243425 0.000101707 -0.00191415 -0.00278582 -0.00291418 -0.00294739
506.0 -0.0023823 -0.00337995 -0.000997653 0.00288112 -0.000692322 -0.0021888 0.00241213 9.75662e-05 -0.00189906 -0.00276203 -0.00288883 -0.00292155
507.0 -0.0023632 -0.00335255 -0.000989349 0.00285788 -0.000686927 -0.00217095 0.00239057 9.37783e-05 -0.00188411 -0.00273859 -0.00286388 -0.00289614
508.0 -0.00234437 -0.00332567 -0.000981298 0.00283502 -0.000681537 -0.00215348 0.00236931 9.01742e-05 -0.00186946 -0.00271562 -0.00283943 -0.00287122
509.0 -0.00232591 -0.00329926 -0.000973349 0.00281259 -0.000676283 -0.00213631 0.00234839 8.66495e-05 -0.00185509 -0.00269314 -0.0028155 -0.00284686
510.0 -0.00230786 -0.0032733 -0.000965439 0.00279058 -0.000671209 -0.00211937 0.00232804 8.30779e-05 -0.00184116 -0.00267123 -0.00279215 -0.00282306
511.0 -0.00229004 -0.00324792 -0.000957881 0.00276898 -0.000666081 -0.0021029 0.00230789 7.94267e-05 -0.00182762 -0.00264986 -0.00276935 -0.00279981
512.0 -0.00227248 -0.00322298 -0.000950502 0.00274773 -0.000660989 -0.00208674 0.0022882 7.59757e-05 -0.00181411 -0.00262873 -0.00274687 -0.00277692
513.0 -0.0022552 -0.00319846 -0.000943265 0.00272683 -0.000655967 -0.00207086 0.00226907 7.27918e-05 -0.00180065 -0.00260783 -0.0027247 -0.00275438
514.0 -0.00223832 -0.0031743 -0.000935987 0.00270631 -0.000651165 -0.00205514 0.00225001 6.95933e-05 -0.0017875 -0.00258733 -0.0027029 -0.00273218
515.0 -0.0022218 -0.00315054 -0.000928741 0.00268617 -0.00064653 -0.00203964 0.00223132 6.65613e-05 -0.00177465 -0.00256726 -0.00268154 -0.0027104
516.0 -0.00220554 -0.00312729 -0.00092175 0.00266642 -0.000641897 -0.00202452 0.002213 6.36323e-05 -0.00176219 -0.00254774 -0.00266071 -0.00268916
517.0 -0.00218944 -0.00310427 -0.000914824 0.00264686 -0.00063731 -0.00200955 0.00219488 6.07711e-05 -0.00174983 -0.00252845 -0.00264017 -0.00266823
518.0 -0.00217347 -0.0030815 -0.000908032 0.00262748 -0.000632717 -0.00199477 0.0021772 5.81525e-05 -0.00173735 -0.00250923 -0.0026198 -0.00264753
519.0 -0.00215776 -0.00305908 -0.000901318 0.00260842 -0.000628222 -0.0019802 0.00215979 5.55462e-05 -0.00172509 -0.00249034 -0.00259978 -0.00262717
520.0 -0.00214244 -0.00303729 -0.000894851 0.00258986 -0.000623792 -0.00196607 0.00214255 5.26968e-05 -0.0017133 -0.002472 -0.0025803 -0.00260734
521.0 -0.00212736 -0.00301591 -0.000888554 0.00257163 -0.000619401 -0.00195223 0.00212546 4.97077e-05 -0.00170186 -0.00245409 -0.00256121 -0.00258788
522.0 -0.00211255 -0.00299495 -0.000882398 0.00255375 -0.000615078 -0.00193867 0.00210871 4.68947e-05 -0.00169073 -0.00243663 -0.00254256 -0.00256886
523.0 -0.00209796 -0.00297422 -0.000876261 0.00253609 -0.000610849 -0.00192524 0.00209247 4.45391e-05 -0.00167953 -0.00241928 -0.00252412 -0.00255008
524.0 -0.0020835 -0.00295356 -0.000870061 0.00251853 -0.00060672 -0.00191181 0.00207638 4.24265e-05 -0.0016682 -0.00240193 -0.00250573 -0.0025314
525.0 -0.00206931 -0.00293316 -0.000863842 0.00250123 -0.000602736 -0.0018985 0.00206047 4.02481e-05 -0.00165713 -0.00238487 -0.00248763 -0.00251298
526.0 -0.0020553 -0.0029131 -0.000857797 0.0024842 -0.000598753 -0.00188545 0.00204487 3.80877e-05 -0.00164624 -0.00236812 -0.00246986 -0.00249489
527.0 -0.00204138 -0.0028935 -0.000852128 0.00246744 -0.000594624 -0.00187282 0.00202944 3.58332e-05 -0.00163563 -0.00235177 -0.0024525 -0.00247721
528.0 -0.00202765 -0.00287429 -0.000846636 0.00245097 -0.000590508 -0.00186046 0.00201415 3.33487e-05 -0.00162535 -0.0023358 -0.00243549 -0.00245988
529.0 -0.00201415 -0.00285527 -0.000841122 0.00243471 -0.000586512 -0.0018482 0.00199918 3.10741e-05 -0.00161507 -0.00231996 -0.00241865 -0.00244277
530.0 -0.00200083 -0.00283622 -0.000835387 0.00241852 -0.000582722 -0.0018358 0.00198442 2.90848e-05 -0.00160471 -0.00230408 -0.00240183 -0.00242567
531.0 -0.0019878 -0.00281736 -0.00082956 0.00240258 -0.000579121 -0.00182346 0.00196967 2.70087e-05 -0.0015946 -0.00228847 -0.00238525 -0.00240878
532.0 -0.00197504 -0.00279885 -0.00082381 0.00238694 -0.000575614 -0.00181133 0.00195542 2.51381e-05 -0.00158462 -0.00227313 -0.00236898 -0.00239221
533.0 -0.00196244 -0.00278081 -0.00081837 0.00237163 -0.000572036 -0.00179959 0.00194144 2.34496e-05 -0.00157484 -0.00225818 -0.00235313 -0.00237608
534.0 -0.00194981 -0.00276321 -0.0008134 0.00235651 -0.000568206 -0.00178831 0.00192731 2.16249e-05 -0.00156527 -0.00224356 -0.00233761 -0.0023603
535.0 -0.00193729 -0.00274592 -0.000808629 0.0023416 -0.00056433 -0.00177727 0.00191332 1.96371e-05 -0.00155598 -0.00222924 -0.00232237 -0.00234479
536.0 -0.00192493 -0.00272872 -0.000803793 0.00232683 -0.000560568 -0.00176626 0.00189958 1.76586e-05 -0.00154666 -0.00221493 -0.00230718 -0.00232934
537.0 -0.00191267 -0.00271148 -0.000798804 0.00231208 -0.000556935 -0.00175514 0.00188605 1.56803e-05 -0.00153739 -0.00220067 -0.00229203 -0.00231393
538.0 -0.00190062 -0.00269431 -0.000793696 0.00229746 -0.000553461 -0.001744 0.00187267 1.38099e-05 -0.00152821 -0.00218655 -0.00227703 -0.00229865
539.0 -0.00188885 -0.00267734 -0.000788494 0.0022831 -0.000550178 -0.00173292 0.00185965 1.22727e-05 -0.00151906 -0.00217259 -0.00226223 -0.00228359
540.0 -0.00187742 -0.00266066 -0.00078324 0.00226904 -0.000547089 -0.00172195 0.00184711 1.0938e-05 -0.00150999 -0.00215885 -0.0022477 -0.00226881
541.0 -0.00186603 -0.00264418 -0.000778157 0.0022551 -0.000543934 -0.00171117 0.00183466 9.60955e-06 -0.00150102 -0.00214529 -0.00223337 -0.00225425
542.0 -0.00185454 -0.00262794 -0.000773394 0.00224124 -0.000540575 -0.00170067 0.00182202 8.18631e-06 -0.00149215 -0.00213187 -0.00221917 -0.00223983
543.0 -0.00184316 -0.00261203 -0.000768872 0.00222759 -0.000537143 -0.00169045 0.00180912 6.45203e-06 -0.00148353 -0.00211868 -0.00220518 -0.00222561
544.0 -0.00183191 -0.0025964 -0.000764488 0.00221415 -0.000533711 -0.00168044 0.0017965 4.6886e-06 -0.00147512 -0.00210575 -0.00219144 -0.00221164
545.0 -0.00182082 -0.00258095 -0.000760132 0.00220089 -0.000530345 -0.00167054 0.00178409 2.90268e-06 -0.0014669 -0.00209306 -0.00217794 -0.00219788
546.0 -0.00180988 -0.0025656 -0.000755717 0.00218774 -0.000527081 -0.00166066 0.00177198 1.33437e-06 -0.00145868 -0.0020805 -0.00216458 -0.00218428
547.0 -0.00179909 -0.0025504 -0.000751307 0.00217475 -0.000523893 -0.00165085 0.00175997 -1.14765e-07 -0.00145057 -0.00206813 -0.00215145 -0.00217092
548.0 -0.00178844 -0.00253526 -0.000746819 0.00216185 -0.000520809 -0.00164104 0.00174826 -1.27224e-06 -0.00144237 -0.00205576 -0.00213836 -0.00215761
549.0 -0.00177794 -0.00252023 -0.000742292 0.00214908 -0.000517822 -0.00163126 0.0017368 -2.42067e-06 -0.00143421 -0.00204347 -0.00212536 -0.0021444
550.0 -0.00176757 -0.00250537 -0.000737804 0.00213647 -0.000514881 -0.00162159 0.00172543 -3.72035e-06 -0.00142618 -0.00203129 -0.00211247 -0.0021313
551.0 -0.00175732 -0.00249072 -0.000733396 0.00212402 -0.000511964 -0.00161206 0.00171426 -5.04327e-06 -0.00141824 -0.00201924 -0.00209971 -0.00211833
552.0 -0.00174707 -0.00247624 -0.000729169 0.00211165 -0.00050895 -0.0016027 0.00170308 -6.26658e-06 -0.00141034 -0.00200729 -0.00208707 -0.00210549
553.0 -0.00173691 -0.00246195 -0.00072504 0.00209943 -0.000505933 -0.00159349 0.00169178 -7.57731e-06 -0.00140256 -0.0019955 -0.00207459 -0.00209279
554.0 -0.00172681 -0.0024477 -0.000720887 0.00208726 -0.000502963 -0.00158429 0.00168055 -8.87141e-06 -0.00139481 -0.00198378 -0.00206219 -0.00208019
555.0 -0.00171678 -0.00243364 -0.000716861 0.00207521 -0.00049996 -0.00157525 0.00166956 -1.01135e-05 -0.0013872 -0.0019723 -0.00205004 -0.00206784
556.0 -0.00170697 -0.00241986 -0.000712892 0.00206342 -0.000497039 -0.00156638 0.0016586 -1.13961e-05 -0.00137983 -0.00196109 -0.00203816 -0.00205576
557.0 -0.00169731 -0.00240622 -0.000708906 0.00205177 -0.000494204 -0.00155756 0.00164783 -1.25862e-05 -0.00137254 -0.00195002 -0.00202641 -0.00204381
558.0 -0.00168773 -0.00239258 -0.00070485 0.00204016 -0.000491442 -0.00154872 0.00163706 -1.38429e-05 -0.00136535 -0.00193902 -0.00201471 -0.0020319
559.0 -0.00167818 -0.00237891 -0.000700733 0.00202854 -0.000488722 -0.00153982 0.0016265 -1.4983e-05 -0.00135807 -0.001928 -0.00200302 -0.00202001
560.0 -0.00166867 -0.00236543 -0.000696766 0.00201705 -0.00048595 -0.0015311 0.0016161 -1.61185e-05 -0.00135087 -0.0019171 -0.00199148 -0.00200826
561.0 -0.00165924 -0.00235215 -0.000692908 0.00200569 -0.000483164 -0.00152253 0.00160584 -1.7189e-05 -0.00134366 -0.00190625 -0.00198 -0.00199661
562.0 -0.00164995 -0.00233921 -0.00068926 0.00199458 -0.000480344 -0.00151423 0.00159584 -1.81211e-05 -0.00133647 -0.00189555 -0.00196872 -0.00198516
563.0 -0.00164078 -0.00232659 -0.000685809 0.00198369 -0.000477487 -0.0015062 0.00158602 -1.89396e-05 -0.0013294 -0.00188504 -0.00195763 -0.00197393
564.0 -0.00163176 -0.00231406 -0.000682293 0.00197291 -0.000474734 -0.00149817 0.00157609 -2.00112e-05 -0.00132254 -0.00187468 -0.00194667 -0.00196279
565.0 -0.0016228 -0.00230134 -0.000678537 0.00196207 -0.000472134 -0.00148994 0.00156617 -2.11843e-05 -0.0013157 -0.0018643 -0.00193568 -0.00195162
566.0 -0.00161394 -0.00228865 -0.00067471 0.00195129 -0.000469615 -0.00148168 0.00155634 -2.23439e-05 -0.00130898 -0.00185407 -0.00192483 -0.00194057
567.0 -0.00160508 -0.00227589 -0.000670806 0.00194049 -0.000467139 -0.00147335 0.00154657 -2.33078e-05 -0.00130217 -0.0018438 -0.00191396 -0.00192951
568.0 -0.00159629 -0.00226314 -0.000666845 0.00192971 -0.000464724 -0.00146499 0.00153683 -2.42414e-05 -0.00129539 -0.00183356 -0.00190312 -0.00191848
569.0 -0.00158759 -0.00225047 -0.000662877 0.00191903 -0.000462356 -0.00145667 0.0015271 -2.52517e-05 -0.00128871 -0.00182345 -0.00189239 -0.00190756
570.0 -0.00157893 -0.00223807 -0.000659135 0.0019085 -0.000459899 -0.0014486 0.00151741 -2.62733e-05 -0.00128212 -0.00181351 -0.00188187 -0.00189686
571.0 -0.00157019 -0.00222595 -0.000655753 0.00189807 -0.000457221 -0.00144085 0.00150803 -2.70682e-05 -0.00127548 -0.00180365 -0.00187148 -0.00188633
572.0 -0.00156156 -0.0022142 -0.000652641 0.00188788 -0.000454458 -0.00143342 0.00149872 -2.79542e-05 -0.00126903 -0.00179402 -0.0018613 -0.00187601
573.0 -0.00155303 -0.00220275 -0.000649715 0.00187789 -0.000451658 -0.00142623 0.00148952 -2.88583e-05 -0.00126267 -0.00178454 -0.00185127 -0.00186584
574.0 -0.00154471 -0.00219141 -0.000646703 0.00186806 -0.000449001 -0.00141906 0.00148044 -2.97401e-05 -0.00125642 -0.00177516 -0.00184136 -0.00185577
575.0 -0.00153663 -0.00218006 -0.000643438 0.00185835 -0.000446594 -0.00141175 0.00147145 -3.07004e-05 -0.00125034 -0.00176594 -0.00183157 -0.00184582
576.0 -0.00152865 -0.00216858 -0.000639935 0.00184862 -0.000444357 -0.00140426 0.00146266 -3.16559e-05 -0.00124419 -0.00175663 -0.00182172 -0.0018358
577.0 -0.00152064 -0.00215702 -0.000636377 0.00183883 -0.000442133 -0.0013967 0.00145378 -3.25893e-05 -0.00123802 -0.00174731 -0.00181186 -0.00182575
578.0 -0.00151258 -0.00214541 -0.000632837 0.001829 -0.00043987 -0.00138913 0.00144496 -3.33705e-05 -0.00123182 -0.00173799 -0.001802 -0.00181573
579.0 -0.00150446 -0.0021338 -0.000629338 0.00181913 -0.000437563 -0.00138157 0.00143622 -3.39865e-05 -0.00122551 -0.00172865 -0.00179216 -0.00180574
580.0 -0.00149647 -0.00212221 -0.000625734 0.00180934 -0.000435369 -0.00137397 0.00142754 -3.46384e-05 -0.00121926 -0.00171935 -0.00178234 -0.00179577
581.0 -0.00148867 -0.00211089 -0.000622217 0.00179978 -0.000433227 -0.00136655 0.00141895 -3.54785e-05 -0.00121323 -0.00171026 -0.00177271 -0.00178598
582.0 -0.00148092 -0.00209988 -0.000618968 0.0017904 -0.000430974 -0.00135943 0.0014105 -3.64011e-05 -0.00120733 -0.00170135 -0.00176327 -0.00177638
583.0 -0.00147308 -0.00208895 -0.000615879 0.00178102 -0.000428599 -0.00135242 0.00140211 -3.72265e-05 -0.00120133 -0.0016924 -0.00175384 -0.00176682
584.0 -0.00146525 -0.00207819 -0.000612935 0.00177172 -0.000426158 -0.00134556 0.00139347 -3.81671e-05 -0.00119552 -0.00168367 -0.0017446 -0.00175744
585.0 -0.00145757 -0.00206773 -0.00061016 0.00176265 -0.000423707 -0.00133895 0.00138496 -3.90422e-05 -0.00118989 -0.00167519 -0.00173563 -0.00174833
586.0 -0.00144999 -0.00205736 -0.000607369 0.00175368 -0.000421312 -0.00133237 0.00137655 -3.97964e-05 -0.00118426 -0.00166679 -0.00172674 -0.0017393
587.0 -0.00144248 -0.00204693 -0.000604457 0.00174471 -0.00041901 -0.0013257 0.00136821 -4.05855e-05 -0.00117862 -0.00165835 -0.00171782 -0.00173023
588.0 -0.00143498 -0.00203647 -0.000601487 0.00173573 -0.000416747 -0.00131898 0.00136004 -4.11739e-05 -0.00117287 -0.00164986 -0.00170887 -0.00172115
589.0 -0.00142751 -0.00202593 -0.000598416 0.00172672 -0.000414548 -0.00131217 0.00135196 -4.16807e-05 -0.0011671 -0.00164134 -0.00169988 -0.00171202
590.0 -0.00142013 -0.00201532 -0.000595192 0.00171773 -0.00041247 -0.00130526 0.00134399 -4.22953e-05 -0.0011614 -0.00163281 -0.00169086 -0.00170285
591.0 -0.00141283 -0.00200473 -0.000591898 0.00170878 -0.000410467 -0.00129831 0.00133611 -4.2965e-05 -0.00115575 -0.00162432 -0.00168188 -0.00169372
592.0 -0.00140569 -0.00199432 -0.000588633 0.0017 -0.000408526 -0.00129148 0.00132839 -4.36152e-05 -0.00115011 -0.00161591 -0.00167299 -0.00168471
593.0 -0.00139873 -0.00198421 -0.000585482 0.00169147 -0.000406623 -0.00128485 0.00132085 -4.43481e-05 -0.00114471 -0.00160774 -0.00166437 -0.00167594
594.0 -0.00139192 -0.00197442 -0.000582503 0.00168317 -0.000404708 -0.00127846 0.00131332 -4.52495e-05 -0.00113956 -0.00159989 -0.00165602 -0.00166744
595.0 -0.00138511 -0.0019648 -0.000579693 0.00167496 -0.000402708 -0.00127225 0.0013059 -4.60814e-05 -0.00113444 -0.00159212 -0.00164779 -0.00165906
596.0 -0.00137818 -0.00195521 -0.000577032 0.0016667 -0.000400574 -0.00126612 0.00129844 -4.6837e-05 -0.00112924 -0.00158433 -0.00163957 -0.00165071
597.0 -0.00137109 -0.00194548 -0.000574392 0.00165829 -0.000398349 -0.00125994 0.00129076 -4.75846e-05 -0.00112394 -0.00157645 -0.00163125 -0.00164228
598.0 -0.00136395 -0.00193563 -0.000571681 0.00164979 -0.000396133 -0.00125365 0.00128297 -4.82485e-05 -0.00111852 -0.00156847 -0.00162285 -0.00163377
599.0 -0.00135677 -0.00192571 -0.000568943 0.00164124 -0.000393914 -0.00124733 0.00127511 -4.877e-05 -0.00111305 -0.00156046 -0.00161443 -0.00162522
600.0 -0.0013496 -0.00191588 -0.000566283 0.00163274 -0.000391658 -0.00124108 0.00126702 -4.93957e-05 -0.0011077 -0.00155255 -0.00160606 -0.00161673
601.0 -0.00134258 -0.00190608 -0.000563497 0.00162433 -0.000389542 -0.00123479 0.00125926 -4.99719e-05 -0.00110241 -0.00154466 -0.00159772 -0.00160826
602.0 -0.00133574 -0.00189628 -0.000560539 0.00161601 -0.000387599 -0.00122841 0.0012519 -5.0438e-05 -0.00109706 -0.00153675 -0.00158938 -0.00159981
603.0 -0.00132907 -0.00188657 -0.000557503 0.00160782 -0.000385782 -0.00122204 0.0012447 -5.0946e-05 -0.00109185 -0.00152898 -0.00158119 -0.0015915
604.0 -0.00132251 -0.00187703 -0.000554515 0.00159977 -0.000383999 -0.00121577 0.0012376 -5.14448e-05 -0.00108675 -0.00152138 -0.00157317 -0.00158335
605.0 -0.00131612 -0.00186784 -0.000551717 0.00159198 -0.000382201 -0.00120978 0.00123073 -5.19554e-05 -0.00108188 -0.00151407 -0.00156543 -0.00157548
606.0 -0.00130992 -0.00185891 -0.000548996 0.00158441 -0.00038046 -0.00120395 0.00122411 -5.24362e-05 -0.00107707 -0.00150688 -0.00155785 -0.00156777
607.0 -0.00130378 -0.00185021 -0.000546435 0.00157699 -0.000378671 -0.00119832 0.00121766 -5.29617e-05 -0.00107232 -0.00149979 -0.00155036 -0.00156017
608.0 -0.00129767 -0.00184164 -0.000543968 0.00156966 -0.000376852 -0.0011928 0.00121107 -5.37098e-05 -0.00106769 -0.00149278 -0.00154294 -0.00155261
609.0 -0.00129156 -0.00183305 -0.00054149 0.0015623 -0.000375033 -0.00118727 0.00120423 -5.46296e-05 -0.0010631 -0.0014858 -0.00153551 -0.00154505
610.0 -0.00128527 -0.00182437 -0.000539101 0.00155482 -0.000373085 -0.00118174 0.00119727 -5.54965e-05 -0.00105847 -0.00147878 -0.00152806 -0.00153747
611.0 -0.00127882 -0.00181553 -0.000536703 0.00154718 -0.000371061 -0.00117612 0.00119015 -5.63292e-05 -0.0010537 -0.00147164 -0.0015205 -0.00152979
612.0 -0.00127223 -0.00180656 -0.000534331 0.0015394 -0.00036895 -0.00117045 0.00118298 -5.69864e-05 -0.00104876 -0.00146435 -0.00151283 -0.00152202
613.0 -0.00126568 -0.00179758 -0.0005319 0.00153163 -0.00036689 -0.00116474 0.00117583 -5.75347e-05 -0.00104381 -0.00145707 -0.00150515 -0.00151425
614.0 -0.0012592 -0.00178849 -0.000529282 0.00152385 -0.000364961 -0.00115888 0.00116876 -5.79379e-05 -0.00103884 -0.00144975 -0.00149745 -0.00150644
615.0 -0.00125282 -0.00177928 -0.000526456 0.00151605 -0.000363184 -0.00115287 0.00116186 -5.82879e-05 -0.00103388 -0.00144245 -0.00148977 -0.00149865
616.0 -0.00124654 -0.00177009 -0.000523554 0.00150832 -0.000361493 -0.00114682 0.00115503 -5.86789e-05 -0.00102904 -0.00143528 -0.00148221 -0.00149097
617.0 -0.00124031 -0.00176097 -0.000520654 0.00150064 -0.000359828 -0.00114081 0.00114836 -5.89124e-05 -0.00102415 -0.00142811 -0.00147469 -0.00148334
618.0 -0.00123423 -0.00175209 -0.00051786 0.00149316 -0.000358186 -0.00113498 0.0011418 -5.91583e-05 -0.00101934 -0.00142106 -0.0014673 -0.00147585
619.0 -0.0012284 -0.00174348 -0.000515086 0.00148594 -0.000356656 -0.00112928 0.00113566 -5.93624e-05 -0.00101465 -0.00141415 -0.00146003 -0.00146848
620.0 -0.0012227 -0.0017353 -0.000512602 0.001479 -0.000355049 -0.00112395 0.00112965 -5.97187e-05 -0.00101017 -0.00140751 -0.00145302 -0.00146135
621.0 -0.00121708 -0.00172753 -0.000510456 0.0014723 -0.00035331 -0.00111899 0.0011238 -6.01327e-05 -0.00100589 -0.00140113 -0.00144628 -0.00145449
622.0 -0.0012115 -0.00172001 -0.000508515 0.00146575 -0.00035149 -0.00111426 0.00111781 -6.07604e-05 -0.00100176 -0.00139494 -0.0014397 -0.00144781
623.0 -0.00120594 -0.0017125 -0.000506562 0.00145922 -0.000349687 -0.00110953 0.00111155 -6.16232e-05 -0.000997685 -0.00138874 -0.00143313 -0.00144113
624.0 -0.0012004 -0.00170492 -0.000504519 0.00145266 -0.000347939 -0.00110472 0.00110523 -6.25828e-05 -0.000993571 -0.00138249 -0.00142649 -0.0014344
625.0 -0.00119484 -0.00169722 -0.000502378 0.00144603 -0.000346232 -0.0010998 0.0010988 -6.36388e-05 -0.000989479 -0.00137622 -0.00141983 -0.00142762
626.0 -0.0011892 -0.00168946 -0.000500259 0.00143933 -0.000344472 -0.00109486 0.00109242 -6.45815e-05 -0.00098538 -0.00136995 -0.00141316 -0.00142085
627.0 -0.00118341 -0.00168146 -0.000498052 0.00143244 -0.00034268 -0.00108976 0.00108611 -6.51268e-05 -0.000981093 -0.00136355 -0.00140639 -0.00141396
628.0 -0.00117754 -0.00167326 -0.000495722 0.0014254 -0.00034091 -0.00108449 0.00107974 -6.55458e-05 -0.000976757 -0.0013571 -0.00139955 -0.00140701
629.0 -0.00117169 -0.00166491 -0.000493213 0.0014183 -0.00033924 -0.00107906 0.00107357 -6.58294e-05 -0.000972286 -0.00135053 -0.00139264 -0.0014
630.0 -0.0011659 -0.00165633 -0.000490422 0.00141111 -0.000337741 -0.00107337 0.00106761 -6.59922e-05 -0.000967705 -0.00134382 -0.0013856 -0.00139285
631.0 -0.00116022 -0.0016477 -0.000487484 0.00140396 -0.000336366 -0.00106759 0.00106173 -6.61669e-05 -0.000963129 -0.00133709 -0.00137854 -0.00138567
632.0 -0.00115454 -0.00163922 -0.000484674 0.00139688 -0.000334934 -0.00106194 0.00105585 -6.62873e-05 -0.000958569 -0.00133042 -0.00137154 -0.00137857
633.0 -0.0011489 -0.00163104 -0.000482144 0.00138997 -0.000333378 -0.00105659 0.00104994 -6.64057e-05 -0.000954075 -0.0013239 -0.00136471 -0.00137165
634.0 -0.00114338 -0.0016232 -0.000479822 0.00138329 -0.000331777 -0.00105151 0.00104403 -6.66186e-05 -0.000949725 -0.00131757 -0.00135806 -0.00136491
635.0 -0.00113794 -0.00161567 -0.000477725 0.00137681 -0.000330109 -0.0010467 0.00103831 -6.68006e-05 -0.000945453 -0.00131139 -0.0013516 -0.00135838
636.0 -0.00113256 -0.00160837 -0.000475813 0.00137046 -0.000328372 -0.00104209 0.00103268 -6.69821e-05 -0.00094119 -0.00130528 -0.00134522 -0.00135196
637.0 -0.00112734 -0.00160133 -0.000473987 0.00136434 -0.000326678 -0.00103766 0.00102697 -6.73768e-05 -0.000937146 -0.00129939 -0.00133905 -0.00134573
638.0 -0.0011223 -0.00159455 -0.000472251 0.00135842 -0.000325024 -0.0010334 0.0010214 -6.79456e-05 -0.000933354 -0.00129376 -0.00133311 -0.00133972
639.0 -0.00111738 -0.00158792 -0.000470542 0.00135265 -0.000323418 -0.00102923 0.00101563 -6.88937e-05 -0.000929851 -0.00128835 -0.00132733 -0.00133384
640.0 -0.0011125 -0.00158122 -0.000468718 0.00134686 -0.000321892 -0.00102497 0.00100981 -6.99917e-05 -0.00092646 -0.00128299 -0.00132158 -0.00132795
641.0 -0.00110767 -0.00157445 -0.000466774 0.00134106 -0.000320449 -0.00102061 0.00100401 -7.10398e-05 -0.000923063 -0.00127762 -0.0013158 -0.00132204
642.0 -0.00110277 -0.00156739 -0.000464621 0.00133508 -0.000319072 -0.001016 0.000998321 -7.18096e-05 -0.000919449 -0.00127201 -0.00130981 -0.00131592
643.0 -0.00109773 -0.00156006 -0.000462328 0.00132889 -0.0003177 -0.00101119 0.000992782 -7.23164e-05 -0.000915648 -0.00126622 -0.00130365 -0.00130962
644.0 -0.00109262 -0.00155246 -0.000459837 0.00132254 -0.000316391 -0.00100615 0.000987351 -7.2686e-05 -0.000911699 -0.00126028 -0.00129734 -0.00130319
645.0 -0.00108747 -0.0015447 -0.000457231 0.00131609 -0.000315119 -0.00100097 0.000982077 -7.28976e-05 -0.000907621 -0.00125425 -0.001291 -0.00129674
646.0 -0.00108224 -0.00153699 -0.000454746 0.00130962 -0.000313748 -0.000995867 0.000976867 -7.30522e-05 -0.000903511 -0.00124824 -0.0012847 -0.00129034
647.0 -0.00107696 -0.00152942 -0.000452453 0.00130319 -0.000312256 -0.000990935 0.000971632 -7.32214e-05 -0.00089941 -0.00124228 -0.00127844 -0.00128401
648.0 -0.00107168 -0.00152207 -0.000450391 0.00129687 -0.000310644 -0.00098623 0.000966409 -7.33239e-05 -0.000895284 -0.00123635 -0.00127226 -0.00127777
649.0 -0.00106646 -0.00151487 -0.000448412 0.00129067 -0.000309025 -0.000981643 0.000961322 -7.33207e-05 -0.000891132 -0.00123046 -0.00126613 -0.0012716
650.0 -0.00106137 -0.00150789 -0.000446522 0.00128463 -0.000307426 -0.000977208 0.000956295 -7.32887e-05 -0.000887071 -0.00122471 -0.00126015 -0.00126559
651.0 -0.00105637 -0.00150108 -0.000444712 0.00127872 -0.000305827 -0.000972896 0.000951098 -7.33679e-05 -0.000883126 -0.00121909 -0.00125429 -0.00125968
652.0 -0.00105146 -0.00149447 -0.000443003 0.00127297 -0.000304231 -0.000968735 0.000945817 -7.35478e-05 -0.000879328 -0.00121363 -0.00124859 -0.00125393
653.0 -0.00104659 -0.00148798 -0.000441394 0.00126728 -0.000302596 -0.000964687 0.000940363 -7.38875e-05 -0.000875674 -0.00120831 -0.00124301 -0.00124828
654.0 -0.00104181 -0.00148151 -0.0004397 0.00126166 -0.000301054 -0.000960604 0.000934871 -7.43932e-05 -0.000872159 -0.00120309 -0.00123748 -0.00124267
655.0 -0.00103722 -0.001475 -0.00043778 0.00125611 -0.000299723 -0.000956392 0.000929496 -7.50701e-05 -0.000868771 -0.0011979 -0.00123196 -0.00123704
656.0 -0.00103277 -0.00146843 -0.000435664 0.0012506 -0.000298553 -0.000952049 0.000924197 -7.58305e-05 -0.000865387 -0.00119266 -0.00122638 -0.00123134
657.0 -0.00102836 -0.00146182 -0.000433458 0.00124509 -0.000297452 -0.000947639 0.000918899 -7.66192e-05 -0.000862034 -0.00118743 -0.00122079 -0.00122561
658.0 -0.00102405 -0.00145534 -0.00043129 0.0012397 -0.00029638 -0.000943315 0.000913649 -7.73456e-05 -0.000858743 -0.0011823 -0.00121531 -0.00122
659.0 -0.00101983 -0.00144891 -0.000429077 0.00123437 -0.000295377 -0.000938992 0.000908603 -7.7975e-05 -0.000855452 -0.00117721 -0.00120989 -0.00121446
660.0 -0.00101558 -0.0014425 -0.000426915 0.00122904 -0.000294335 -0.000934707 0.000903765 -7.84612e-05 -0.000852147 -0.00117217 -0.00120452 -0.00120898
661.0 -0.00101114 -0.001436 -0.000424855 0.00122357 -0.000293143 -0.000930425 0.00089884 -7.89033e-05 -0.000848764 -0.00116706 -0.0011991 -0.00120346
662.0 -0.00100645 -0.00142938 -0.000422929 0.00121792 -0.000291762 -0.000926156 0.000893934 -7.92922e-05 -0.000845195 -0.00116178 -0.00119354 -0.00119783
663.0 -0.00100163 -0.00142274 -0.000421108 0.00121218 -0.00029026 -0.000921923 0.00088926 -7.95247e-05 -0.000841538 -0.00115647 -0.00118797 -0.00119221
664.0 -0.000996797 -0.00141618 -0.000419387 0.00120649 -0.000288705 -0.000917786 0.000884625 -7.97494e-05 -0.000837914 -0.00115121 -0.00118246 -0.00118665
665.0 -0.000992016 -0.00140976 -0.000417749 0.00120089 -0.000287134 -0.000913757 0.000880125 -7.98898e-05 -0.000834312 -0.00114603 -0.00117704 -0.00118118
666.0 -0.000987322 -0.00140342 -0.000416102 0.00119537 -0.00028561 -0.000909763 0.000875748 -7.98581e-05 -0.000830676 -0.00114087 -0.00117166 -0.00117576
667.0 -0.000982768 -0.00139722 -0.000414456 0.00119 -0.000284156 -0.000905841 0.000871481 -7.97318e-05 -0.000827063 -0.00113577 -0.00116637 -0.00117043
668.0 -0.000978299 -0.00139114 -0.000412838 0.00118472 -0.000282731 -0.000901988 0.000867191 -7.96632e-05 -0.000823545 -0.00113079 -0.00116117 -0.00116518
669.0 -0.000973889 -0.0013851 -0.000411212 0.00117949 -0.000281338 -0.000898156 0.000862805 -7.97457e-05 -0.000820181 -0.00112592 -0.00115605 -0.00116
670.0 -0.000969533 -0.00137906 -0.000409525 0.0011743 -0.000280004 -0.000894292 0.00085823 -8.00349e-05 -0.000816924 -0.00112108 -0.00115095 -0.0011548
671.0 -0.000965243 -0.00137297 -0.000407727 0.00116911 -0.000278758 -0.000890348 0.000853485 -8.04194e-05 -0.000813686 -0.00111622 -0.00114581 -0.00114957
672.0 -0.000961012 -0.00136689 -0.000405875 0.00116395 -0.000277568 -0.000886381 0.000848605 -8.08759e-05 -0.000810491 -0.0011114 -0.0011407 -0.00114436
673.0 -0.000956866 -0.00136084 -0.000403971 0.00115885 -0.000276448 -0.000882403 0.000843661 -8.13709e-05 -0.000807307 -0.0011066 -0.00113562 -0.00113919
674.0 -0.000952767 -0.00135489 -0.000402126 0.00115383 -0.000275321 -0.00087851 0.00083868 -8.18973e-05 -0.000804173 -0.00110188 -0.00113061 -0.00113409
675.0 -0.000948731 -0.00134901 -0.000400284 0.00114887 -0.000274224 -0.000874649 0.000833723 -8.23866e-05 -0.000801051 -0.00109717 -0.00112563 -0.00112902
676.0 -0.000944717 -0.00134309 -0.000398378 0.00114391 -0.000273169 -0.000870736 0.000828852 -8.2855e-05 -0.000797871 -0.0010924 -0.0011206 -0.0011239
677.0 -0.000940694 -0.0013371 -0.000396404 0.0011389 -0.000272145 -0.000866751 0.000823982 -8.33876e-05 -0.000794606 -0.00108752 -0.00111546 -0.0011187
678.0 -0.000936692 -0.00133103 -0.000394343 0.00113386 -0.000271174 -0.000862689 0.00081916 -8.39858e-05 -0.000791403 -0.00108269 -0.00111035 -0.00111351
679.0 -0.000932661 -0.00132493 -0.000392272 0.0011288 -0.000270194 -0.000858603 0.000814432 -8.44673e-05 -0.000788196 -0.00107787 -0.00110526 -0.00110834
680.0 -0.000928538 -0.00131887 -0.000390328 0.0011237 -0.000269105 -0.000854597 0.000809683 -8.49558e-05 -0.000785022 -0.00107309 -0.0011002 -0.0011032
681.0 -0.000924399 -0.001313 -0.000388598 0.0011187 -0.000267901 -0.000850798 0.000805083 -8.54576e-05 -0.000781944 -0.00106845 -0.00109529 -0.00109821
682.0 -0.000920234 -0.00130731 -0.000387074 0.00111377 -0.00026658 -0.000847191 0.000800943 -8.5754e-05 -0.000778869 -0.0010639 -0.0010905 -0.00109336
683.0 -0.00091606 -0.00130173 -0.000385671 0.0011089 -0.000265194 -0.000843701 0.000797155 -8.58421e-05 -0.000775781 -0.00105944 -0.00108581 -0.00108862
684.0 -0.000911907 -0.00129625 -0.000384344 0.00110408 -0.000263782 -0.000840298 0.000793449 -8.58749e-05 -0.000772732 -0.00105503 -0.00108119 -0.00108393
685.0 -0.000907875 -0.00129088 -0.000383006 0.00109938 -0.000262434 -0.000836943 0.00078978 -8.5937e-05 -0.000769779 -0.00105074 -0.00107665 -0.00107933
686.0 -0.00090396 -0.00128559 -0.00038163 0.00109478 -0.000261165 -0.00083361 0.000786197 -8.59423e-05 -0.000766835 -0.00104647 -0.00107217 -0.00107478
687.0 -0.000900112 -0.00128027 -0.000380158 0.00109019 -0.000259977 -0.000830214 0.000782632 -8.59508e-05 -0.000763874 -0.00104217 -0.00106766 -0.0010702
688.0 -0.000896333 -0.00127483 -0.000378496 0.00108558 -0.000258918 -0.000826662 0.000779128 -8.59603e-05 -0.000760851 -0.00103777 -0.00106304 -0.00106552
689.0 -0.000892524 -0.00126938 -0.000376853 0.00108095 -0.000257835 -0.000823115 0.000775507 -8.5964e-05 -0.000757773 -0.00103334 -0.00105841 -0.00106083
690.0 -0.000888686 -0.00126394 -0.000375254 0.00107631 -0.000256716 -0.000819597 0.000771652 -8.60479e-05 -0.00075473 -0.00102893 -0.0010538 -0.00105617
691.0 -0.000884844 -0.00125853 -0.000373688 0.00107169 -0.000255578 -0.000816109 0.000767523 -8.62792e-05 -0.000751735 -0.00102456 -0.00104921 -0.00105153
692.0 -0.000880987 -0.00125312 -0.000372129 0.00106705 -0.000254429 -0.000812623 0.000763332 -8.65471e-05 -0.000748734 -0.00102017 -0.00104461 -0.00104687
693.0 -0.000877138 -0.00124773 -0.000370589 0.00106243 -0.000253275 -0.000809158 0.000759064 -8.68053e-05 -0.000745708 -0.00101577 -0.00104 -0.00104222
694.0 -0.000873302 -0.00124237 -0.00036907 0.00105784 -0.000252116 -0.000805721 0.000754642 -8.71065e-05 -0.000742746 -0.00101142 -0.00103542 -0.00103758
695.0 -0.000869476 -0.00123697 -0.00036749 0.00105322 -0.000250993 -0.000802229 0.000750056 -8.75584e-05 -0.000739836 -0.00100706 -0.00103082 -0.00103291
696.0 -0.000865678 -0.00123159 -0.000365909 0.00104863 -0.000249884 -0.000798748 0.000745283 -8.81837e-05 -0.000737024 -0.00100279 -0.00102628 -0.0010283
697.0 -0.000861914 -0.00122616 -0.000364246 0.00104404 -0.000248834 -0.000795203 0.000740469 -8.88709e-05 -0.000734267 -0.000998565 -0.00102178 -0.00102371
698.0 -0.000858189 -0.00122069 -0.000362501 0.00103944 -0.000247844 -0.000791596 0.000735668 -8.9572e-05 -0.000731503 -0.000994328 -0.00101728 -0.00101913
699.0 -0.000854537 -0.00121523 -0.000360692 0.00103488 -0.000246922 -0.000787961 0.000731059 -9.0218e-05 -0.000728744 -0.000990083 -0.00101276 -0.00101453
700.0 -0.000851033 -0.00120993 -0.000358899 0.00103048 -0.000246067 -0.000784416 0.000726674 -9.07696e-05 -0.00072607 -0.000985955 -0.00100836 -0.00101003
701.0 -0.000847619 -0.00120479 -0.000357176 0.00102621 -0.000245222 -0.000780985 0.000722504 -9.13216e-05 -0.000723503 -0.000981952 -0.00100409 -0.00100565
702.0 -0.000844242 -0.00119971 -0.000355471 0.00102198 -0.000244386 -0.000777593 0.000718611 -9.17989e-05 -0.000720983 -0.000978041 -0.00099991 -0.00100137
703.0 -0.000840841 -0.00119462 -0.000353775 0.00101773 -0.000243533 -0.000774195 0.000715097 -9.19818e-05 -0.000718315 -0.000974066 -0.000995723 -0.000997107
704.0 -0.00083736 -0.00118948 -0.000352116 0.00101342 -0.000242622 -0.000770796 0.000711875 -9.19304e-05 -0.00071546 -0.000969967 -0.000991457 -0.000992789
705.0 -0.000833725 -0.0011843 -0.000350573 0.00100901 -0.000241576 -0.000767435 0.000708741 -9.16903e-05 -0.000712461 -0.000965776 -0.000987119 -0.000988414
706.0 -0.000830047 -0.00117921 -0.000349166 0.00100463 -0.00024044 -0.000764189 0.000705654 -9.13728e-05 -0.000709446 -0.000961608 -0.000982816 -0.000984082
707.0 -0.000826535 -0.0011744 -0.000347867 0.00100047 -0.000239334 -0.000761135 0.000702654 -9.11729e-05 -0.000706621 -0.000957647 -0.000978703 -0.000979937
708.0 -0.0008231 -0.00116981 -0.000346713 0.000996457 -0.000238194 -0.000758263 0.000699665 -9.11004e-05 -0.000703961 -0.000953854 -0.000974737 -0.000975934
709.0 -0.000819663 -0.00116538 -0.000345712 0.000992519 -0.000236975 -0.000755544 0.000696607 -9.11032e-05 -0.000701354 -0.000950131 -0.00097084 -0.00097201
710.0 -0.00081617 -0.00116089 -0.000344721 0.000988531 -0.000235725 -0.000752806 0.000693379 -9.11333e-05 -0.000698652 -0.000946292 -0.000966842 -0.000967998
711.0 -0.000812733 -0.00115632 -0.000343587 0.000984526 -0.000234573 -0.000749954 0.00069004 -9.12489e-05 -0.000695986 -0.000942448 -0.000962827 -0.000963951
712.0 -0.000809343 -0.00115168 -0.000342334 0.00098051 -0.000233505 -0.000747005 0.000686631 -9.142e-05 -0.000693347 -0.000938613 -0.000958805 -0.000959887
713.0 -0.000805898 -0.00114694 -0.000341044 0.00097642 -0.000232427 -0.000743993 0.000683029 -9.17161e-05 -0.000690727 -0.000934758 -0.000954746 -0.000955779
714.0 -0.000802415 -0.00114213 -0.000339719 0.000972274 -0.000231348 -0.000740926 0.000679236 -9.20456e-05 -0.000688112 -0.000930885 -0.000950653 -0.000951625
715.0 -0.00079889 -0.00113732 -0.000338434 0.000968107 -0.000230228 -0.000737879 0.00067546 -9.22309e-05 -0.000685463 -0.00092702 -0.000946576 -0.000947496
716.0 -0.000795345 -0.00113245 -0.000337101 0.000963896 -0.000229122 -0.000734774 0.000671614 -9.24293e-05 -0.000682795 -0.000923128 -0.000942474 -0.000943337
717.0 -0.000791898 -0.00112753 -0.000335636 0.000959716 -0.000228131 -0.000731585 0.000667763 -9.27427e-05 -0.000680202 -0.000919271 -0.000938385 -0.000939179
718.0 -0.000788581 -0.00112259 -0.00033401 0.000955586 -0.000227286 -0.000728301 0.000663864 -9.32546e-05 -0.000677755 -0.000915497 -0.000934358 -0.00093506
719.0 -0.000785375 -0.00111769 -0.000332315 0.000951532 -0.00022653 -0.000725003 0.000659908 -9.39043e-05 -0.00067543 -0.000911823 -0.000930417 -0.00093102
720.0 -0.000782265 -0.00111289 -0.000330628 0.000947579 -0.000225818 -0.00072176 0.000655966 -9.46238e-05 -0.000673208 -0.00090825 -0.000926579 -0.000927078
721.0 -0.000779211 -0.00110821 -0.000328998 0.00094371 -0.000225106 -0.000718604 0.000651928 -9.5388e-05 -0.000671074 -0.000904784 -0.00092284 -0.000923228
722.0 -0.000776206 -0.00110361 -0.000327401 0.000939907 -0.000224403 -0.000715504 0.000648022 -9.59912e-05 -0.000668896 -0.000901327 -0.000919134 -0.000919427
723.0 -0.000773229 -0.00109904 -0.000325809 0.000936133 -0.00022371 -0.000712423 0.0006443 -9.63471e-05 -0.000666596 -0.000897811 -0.00091541 -0.000915623
724.0 -0.000770288 -0.00109451 -0.000324219 0.000932398 -0.000223035 -0.000709363 0.000640616 -9.67014e-05 -0.000664268 -0.000894269 -0.000911666 -0.000911806
725.0 -0.000767363 -0.00108999 -0.000322631 0.000928678 -0.000222366 -0.000706313 0.000637139 -9.69231e-05 -0.000661839 -0.000890674 -0.000907901 -0.000907983
726.0 -0.000764396 -0.00108557 -0.000321175 0.000924983 -0.000221611 -0.000703373 0.000633865 -9.70295e-05 -0.000659368 -0.000887094 -0.000904166 -0.000904203
727.0 -0.000761324 -0.0010812 -0.000319873 0.000921261 -0.000220726 -0.000700535 0.000630627 -9.71311e-05 -0.000656884 -0.00088351 -0.00090043 -0.00090043
728.0 -0.000758144 -0.00107677 -0.000318629 0.000917458 -0.000219757 -0.000697701 0.000627429 -9.71406e-05 -0.000654309 -0.000879839 -0.000896615 -0.000896591
729.0 -0.000754876 -0.0010723 -0.000317419 0.000913586 -0.000218729 -0.000694858 0.000624355 -9.69965e-05 -0.000651583 -0.000876047 -0.000892709 -0.000892682
730.0 -0.000751581 -0.00106786 -0.000316275 0.000909719 -0.000217653 -0.000692065 0.000621423 -9.6765e-05 -0.00064886 -0.0008723 -0.000888848 -0.00088882
731.0 -0.0007483 -0.00106352 -0.000315224 0.000905912 -0.000216538 -0.000689374 0.000618591 -9.6526e-05 -0.000646203 -0.000868647 -0.000885079 -0.000885041
732.0 -0.000745062 -0.00105936 -0.000314295 0.00090221 -0.000215384 -0.000686826 0.000615872 -9.62772e-05 -0.00064362 -0.000865112 -0.000881429 -0.000881384
733.0 -0.000741851 -0.00105526 -0.000313408 0.000898555 -0.000214222 -0.000684333 0.000613051 -9.61401e-05 -0.000641105 -0.000861637 -0.000877831 -0.000877769
734.0 -0.000738626 -0.0010512 -0.00031257 0.000894911 -0.000213028 -0.000681883 0.000610085 -9.61326e-05 -0.000638657 -0.000858219 -0.00087427 -0.00087419
735.0 -0.000735466 -0.00104714 -0.000311676 0.000891304 -0.000211895 -0.000679409 0.000606943 -9.63009e-05 -0.000636308 -0.000854857 -0.000870736 -0.000870621
736.0 -0.000732443 -0.00104315 -0.000310709 0.000887798 -0.000210867 -0.000676931 0.000603807 -9.65735e-05 -0.000634095 -0.000851596 -0.000867281 -0.000867114
737.0 -0.000729488 -0.0010392 -0.000309711 0.000884344 -0.000209889 -0.000674455 0.000600695 -9.68602e-05 -0.000631981 -0.000848412 -0.000863875 -0.000863638
738.0 -0.000726583 -0.00103516 -0.000308575 0.000880871 -0.000209004 -0.000671866 0.00059769 -9.70213e-05 -0.000629794 -0.000845163 -0.000860421 -0.000860117
739.0 -0.000723724 -0.00103104 -0.000307318 0.000877383 -0.000208203 -0.00066918 0.000594685 -9.72083e-05 -0.000627599 -0.000841888 -0.000856951 -0.00085658
740.0 -0.000720938 -0.00102683 -0.000305894 0.000873885 -0.000207522 -0.000666363 0.000591744 -9.74079e-05 -0.0006254 -0.000838592 -0.000853462 -0.000853023
741.0 -0.000718151 -0.00102252 -0.00030437 0.000870336 -0.000206891 -0.000663445 0.000588773 -9.76518e-05 -0.000623256 -0.000835338 -0.000850005 -0.000849491
742.0 -0.00071543 -0.00101811 -0.000302684 0.000866772 -0.000206373 -0.000660399 0.000585811 -9.80152e-05 -0.000621209 -0.00083213 -0.000846578 -0.000845973
743.0 -0.000712786 -0.00101372 -0.000300936 0.000863254 -0.000205925 -0.000657329 0.000582964 -9.84124e-05 -0.000619173 -0.000828916 -0.000843151 -0.000842459
744.0 -0.000710134 -0.0010094 -0.000299264 0.000859767 -0.000205435 -0.000654331 0.000580001 -9.88945e-05 -0.000617163 -0.000825715 -0.000839734 -0.000838955
745.0 -0.0007075 -0.00100513 -0.000297627 0.000856314 -0.000204937 -0.000651377 0.000576943 -9.94447e-05 -0.000615183 -0.000822536 -0.000836334 -0.000835465
746.0 -0.000704874 -0.00100096 -0.000296088 0.000852918 -0.000204393 -0.000648525 0.000573874 -9.99176e-05 -0.000613173 -0.000819382 -0.000832982 -0.000832035
747.0 -0.000702198 -0.000996912 -0.000294715 0.000849555 -0.000203741 -0.000645813 0.000570735 -0.000100356 -0.000611139 -0.000816247 -0.000829658 -0.000828647
748.0 -0.000699455 -0.000992989 -0.000293535 0.000846222 -0.00020296 -0.000643262 0.0005676 -0.00010063 -0.000609048 -0.000813122 -0.000826364 -0.000825307
749.0 -0.000696624 -0.000989121 -0.000292497 0.000842873 -0.000202064 -0.000640809 0.000564315 -0.000100903 -0.000606916 -0.000809966 -0.000823046 -0.000821955
750.0 -0.000693753 -0.000985239 -0.000291486 0.000839496 -0.000201134 -0.000638362 0.000560897 -0.000101232 -0.000604751 -0.000806762 -0.000819684 -0.000818566
751.0 -0.00069091 -0.000981384 -0.000290474 0.000836147 -0.000200218 -0.000635929 0.000557529 -0.000101552 -0.000602619 -0.000803597 -0.000816358 -0.000815208
752.0 -0.000688099 -0.000977559 -0.00028946 0.000832829 -0.000199319 -0.00063351 0.000554219 -0.000101818 -0.000600503 -0.000800482 -0.000813085 -0.0008119
753.0 -0.000685288 -0.000973791 -0.000288503 0.000829539 -0.000198392 -0.000631147 0.000550985 -0.000101992 -0.000598377 -0.000797402 -0.000809857 -0.000808641
754.0 -0.000682483 -0.000970045 -0.000287562 0.000826264 -0.00019746 -0.000628804 0.000547834 -0.000102014 -0.000596192 -0.000794316 -0.000806645 -0.000805405
755.0 -0.000679746 -0.000966324 -0.000286578 0.000823035 -0.000196584 -0.000626451 0.000544986 -0.000101832 -0.000593923 -0.000791206 -0.000803436 -0.000802186
756.0 -0.000677024 -0.000962652 -0.000285627 0.000819838 -0.000195699 -0.000624139 0.000542156 -0.000101716 -0.000591716 -0.000788146 -0.000800268 -0.000798998
757.0 -0.000674208 -0.000959017 -0.00028481 0.000816612 -0.000194699 -0.000621913 0.000539278 -0.000101668 -0.000589544 -0.000785121 -0.000797117 -0.000795821
758.0 -0.000671284 -0.00095541 -0.000284125 0.000813347 -0.00019358 -0.000619768 0.000536433 -0.000101579 -0.000587337 -0.000782088 -0.000793972 -0.00079266
759.0 -0.000668413 -0.000951876 -0.000283462 0.000810144 -0.000192475 -0.000617669 0.000533579 -0.00010155 -0.00058518 -0.000779114 -0.000790879 -0.00078955
760.0 -0.000665648 -0.000948419 -0.000282771 0.000807034 -0.000191439 -0.000615595 0.000530823 -0.000101567 -0.000583099 -0.000776216 -0.000787859 -0.000786508
761.0 -0.00066296 -0.000944922 -0.000281962 0.000803941 -0.000190499 -0.000613442 0.000528202 -0.000101579 -0.000581011 -0.000773299 -0.000784819 -0.000783444
762.0 -0.000660355 -0.000941379 -0.000281023 0.000800867 -0.000189666 -0.000611201 0.000525651 -0.000101564 -0.000578934 -0.000770376 -0.000781769 -0.000780364
763.0 -0.000657838 -0.000937821 -0.000279984 0.00079783 -0.000188927 -0.000608902 0.000523162 -0.000101505 -0.000576886 -0.00076747 -0.000778727 -0.000777284
764.0 -0.000655375 -0.000934181 -0.000278807 0.000794778 -0.000188284 -0.000606494 0.000520748 -0.000101431 -0.000574841 -0.000764541 -0.000775659 -0.000774171
765.0 -0.000653009 -0.000930472 -0.000277463 0.00079174 -0.000187773 -0.000603968 0.000518418 -0.000101425 -0.000572858 -0.000761628 -0.000772592 -0.000771046
766.0 -0.000650708 -0.000926634 -0.000275926 0.000788671 -0.000187391 -0.00060128 0.000516217 -0.000101424 -0.000570838 -0.000758641 -0.00076945 -0.000767844
767.0 -0.000648389 -0.000922568 -0.000274179 0.000785479 -0.000187105 -0.000598373 0.000513935 -0.0001015 -0.000568777 -0.000755536 -0.000766184 -0.000764508
768.0 -0.000646086 -0.000918356 -0.00027227 0.000782221 -0.000186908 -0.000595313 0.000511457 -0.00010179 -0.000566797 -0.000752417 -0.000762869 -0.000761107
769.0 -0.000643823 -0.000914346 -0.000270523 0.000779084 -0.00018665 -0.000592435 0.000508937 -0.00010218 -0.000564947 -0.000749447 -0.000759697 -0.000757847
770.0 -0.000641541 -0.000910596 -0.000269055 0.000776068 -0.000186243 -0.000589825 0.000506528 -0.000102583 -0.000563217 -0.000746651 -0.000756695 -0.000754763
771.0 -0.000639245 -0.000907016 -0.000267771 0.00077313 -0.000185737 -0.000587393 0.000504157 -0.000102996 -0.000561541 -0.000743948 -0.000753789 -0.000751787
772.0 -0.000636907 -0.000903476 -0.000266569 0.000770191 -0.000185169 -0.000585022 0.000501755 -0.000103432 -0.00055981 -0.000741202 -0.000750859 -0.000748802
773.0 -0.000634532 -0.000899957 -0.000265425 0.000767245 -0.000184554 -0.000582691 0.000499272 -0.000103903 -0.000558037 -0.000738428 -0.000747915 -0.000745814
774.0 -0.0006321 -0.000896527 -0.000264427 0.000764314 -0.000183837 -0.000580477 0.000496724 -0.000104394 -0.000556307 -0.000735718 -0.000745032 -0.000742887
775.0 -0.000629633 -0.000893185 -0.000263552 0.000761409 -0.000183041 -0.000578368 0.000494119 -0.000104904 -0.00055461 -0.000733066 -0.000742207 -0.000740013
776.0 -0.000627159 -0.000889904 -0.000262746 0.000758531 -0.000182206 -0.000576325 0.000491508 -0.000105378 -0.000552938 -0.000730456 -0.00073942 -0.000737179
777.0 -0.000624652 -0.000886709 -0.000262057 0.00075568 -0.000181297 -0.000574383 0.000488951 -0.000105612 -0.000551189 -0.00072786 -0.000736676 -0.0007344
778.0 -0.000622112 -0.000883518 -0.000261407 0.000752815 -0.000180352 -0.000572463 0.000486247 -0.000105814 -0.000549409 -0.000725255 -0.000733933 -0.00073163
779.0 -0.000619577 -0.000880257 -0.00026068 0.000749917 -0.000179449 -0.000570468 0.00048352 -0.000106005 -0.000547617 -0.000722629 -0.000731168 -0.000728831
780.0 -0.000617086 -0.00087697 -0.000259884 0.000747028 -0.000178601 -0.000568427 0.000480944 -0.000106099 -0.00054581 -0.000720013 -0.000728416 -0.000726041
781.0 -0.000614652 -0.000873703 -0.000259051 0.000744177 -0.0001778 -0.000566377 0.000478404 -0.000106136 -0.000543994 -0.000717419 -0.000725703 -0.000723292
782.0 -0.000612227 -0.000870507 -0.00025828 0.000741367 -0.000176973 -0.000564394 0.000475786 -0.00010613 -0.000542173 -0.000714863 -0.000723038 -0.000720599
783.0 -0.000609821 -0.000867316 -0.000257495 0.000738568 -0.000176163 -0.000562406 0.00047309 -0.000106056 -0.000540289 -0.000712276 -0.000720356 -0.0007179
784.0 -0.000607468 -0.000864206 -0.000256737 0.000735837 -0.000175366 -0.000560471 0.000470391 -0.000105957 -0.000538429 -0.000709732 -0.000717722 -0.000715252
785.0 -0.00060512 -0.000861134 -0.000256014 0.000733127 -0.000174553 -0.000558574 0.000467691 -0.000105829 -0.000536547 -0.000707198 -0.000715111 -0.000712631
786.0 -0.000602781 -0.000858094 -0.000255313 0.000730437 -0.000173734 -0.000556703 0.000465059 -0.000105679 -0.000534643 -0.000704648 -0.000712493 -0.000710012
787.0 -0.000600441 -0.000855094 -0.000254652 0.000727768 -0.000172894 -0.000554873 0.00046247 -0.000105497 -0.000532699 -0.000702077 -0.00070987 -0.000707396
788.0 -0.000598123 -0.000852101 -0.000253978 0.000725112 -0.000172072 -0.000553039 0.00045993 -0.000105343 -0.000530791 -0.000699525 -0.000707259 -0.000704786
789.0 -0.000595814 -0.000849059 -0.000253245 0.000722436 -0.000171285 -0.000551152 0.000457394 -0.000105274 -0.000528927 -0.000696981 -0.00070464 -0.000702161
790.0 -0.000593557 -0.00084596 -0.000252403 0.000719759 -0.000170577 -0.000549182 0.000454845 -0.000105296 -0.000527133 -0.000694453 -0.000702013 -0.00069951
791.0 -0.00059135 -0.000842828 -0.000251477 0.000717089 -0.000169937 -0.000547153 0.000452276 -0.00010534 -0.000525385 -0.000691938 -0.000699377 -0.000696834
792.0 -0.000589186 -0.000839609 -0.000250422 0.000714398 -0.000169382 -0.000545015 0.000449775 -0.000105352 -0.000523606 -0.000689346 -0.000696655 -0.000694067
793.0 -0.000587078 -0.000836335 -0.000249257 0.000711707 -0.000168911 -0.000542796 0.000447348 -0.000105443 -0.00052186 -0.000686738 -0.000693891 -0.000691245
794.0 -0.000585014 -0.00083304 -0.000248026 0.000709027 -0.000168494 -0.000540533 0.000445037 -0.000105551 -0.000520113 -0.000684117 -0.000691115 -0.000688411
795.0 -0.000582958 -0.000829752 -0.000246794 0.000706355 -0.000168082 -0.000538273 0.000442797 -0.000105682 -0.000518383 -0.000681514 -0.000688355 -0.000685595
796.0 -0.000580893 -0.000826431 -0.000245538 0.000703662 -0.000167678 -0.000535984 0.000440541 -0.000105912 -0.000516716 -0.000678937 -0.000685604 -0.000682783
797.0 -0.000578823 -0.000822943 -0.000244121 0.000700883 -0.000167351 -0.000533532 0.000438284 -0.000106218 -0.000515055 -0.000676303 -0.000682784 -0.000679898
798.0 -0.000576749 -0.000819455 -0.000242706 0.000698102 -0.000167022 -0.000531081 0.000436101 -0.000106525 -0.000513349 -0.000673616 -0.000679921 -0.000676982
799.0 -0.000574701 -0.000816047 -0.000241346 0.000695374 -0.000166677 -0.000528696 0.00043397 -0.000106866 -0.000511712 -0.000671 -0.000677124 -0.000674125
800.0 -0.000572678 -0.000812727 -0.00024005 0.000692702 -0.000166314 -0.000526388 0.000431891 -0.000107199 -0.000510121 -0.000668452 -0.000674399 -0.000671338
801.0 -0.000570646 -0.000809503 -0.000238857 0.000690075 -0.000165895 -0.00052418 0.000429746 -0.000107576 -0.000508574 -0.000665974 -0.000671746 -0.000668623
802.0 -0.000568623 -0.000806386 -0.000237763 0.000687505 -0.00016543 -0.000522074 0.000427672 -0.000107921 -0.000507052 -0.000663559 -0.000669166 -0.000665985
803.0 -0.000566535 -0.000803389 -0.000236854 0.000684962 -0.00016484 -0.000520122 0.000425657 -0.00010819 -0.000505524 -0.000661207 -0.000666666 -0.00066344
804.0 -0.00056444 -0.000800439 -0.000235999 0.000682439 -0.00016422 -0.000518219 0.000423691 -0.000108461 -0.000503994 -0.000658862 -0.000664175 -0.000660907
805.0 -0.000562394 -0.000797491 -0.000235097 0.000679943 -0.000163648 -0.000516294 0.000421785 -0.00010878 -0.000502492 -0.00065652 -0.000661684 -0.000658365
806.0 -0.000560364 -0.000794599 -0.000234235 0.000677482 -0.000163064 -0.000514417 0.000419787 -0.000109199 -0.000501051 -0.000654239 -0.000659247 -0.000655872
807.0 -0.000558352 -0.000791865 -0.000233512 0.000675109 -0.00016242 -0.000512689 0.000417824 -0.000109594 -0.000499664 -0.000652068 -0.000656937 -0.000653514
808.0 -0.000556374 -0.000789217 -0.000232843 0.000672795 -0.000161765 -0.00051103 0.000415955 -0.000109903 -0.000498261 -0.00064994 -0.000654691 -0.000651231
809.0 -0.000554421 -0.000786597 -0.000232176 0.000670509 -0.000161123 -0.000509386 0.00041422 -0.000110037 -0.000496808 -0.000647826 -0.000652484 -0.000648998
810.0 -0.000552433 -0.000783959 -0.000231526 0.000668196 -0.000160454 -0.000507742 0.000412554 -0.000109963 -0.00049527 -0.000645689 -0.000650279 -0.000646779
811.0 -0.000550378 -0.000781298 -0.00023092 0.000665838 -0.000159729 -0.000506109 0.000410768 -0.000109893 -0.000493693 -0.000643525 -0.000648053 -0.000644543
812.0 -0.00054827 -0.000778606 -0.000230336 0.000663438 -0.000158967 -0.000504471 0.00040896 -0.000109806 -0.000492079 -0.000641342 -0.000645813 -0.000642302
813.0 -0.000546155 -0.000775919 -0.000229764 0.000661037 -0.000158196 -0.000502841 0.00040718 -0.000109698 -0.000490473 -0.000639182 -0.000643597 -0.000640085
814.0 -0.000544041 -0.000773226 -0.000229185 0.000658634 -0.000157428 -0.000501205 0.000405425 -0.000109529 -0.00048884 -0.000637013 -0.000641378 -0.000637867
815.0 -0.000541937 -0.000770516 -0.000228579 0.000656226 -0.000156679 -0.000499547 0.000403647 -0.000109283 -0.00048716 -0.00063481 -0.000639134 -0.000635626
816.0 -0.000539886 -0.000767787 -0.000227901 0.000653837 -0.000155992 -0.000497844 0.000401799 -0.000109002 -0.00048546 -0.000632581 -0.000636862 -0.000633359
817.0 -0.000537947 -0.000765151 -0.000227204 0.000651549 -0.000155372 -0.000496177 0.0003999 -0.000108769 -0.00048384 -0.000630425 -0.000634652 -0.000631144
818.0 -0.000536054 -0.000762574 -0.00022652 0.000649314 -0.000154767 -0.000494547 0.000397923 -0.000108628 -0.000482323 -0.000628357 -0.00063251 -0.000628989
819.0 -0.000534204 -0.000760053 -0.00022585 0.000647128 -0.000154177 -0.000492951 0.000395853 -0.000108577 -0.000480896 -0.000626357 -0.000630418 -0.000626871
820.0 -0.00053234 -0.000757513 -0.000225173 0.000644926 -0.000153583 -0.000491343 0.000393692 -0.000108538 -0.000479439 -0.000624313 -0.000628285 -0.000624715
821.0 -0.000530411 -0.000754856 -0.000224445 0.000642633 -0.000152983 -0.00048965 0.000391329 -0.000108532 -0.000477911 -0.000622162 -0.000626038 -0.000622444
822.0 -0.000528459 -0.0007521 -0.000223641 0.000640279 -0.000152409 -0.000487871 0.000388771 -0.000108634 -0.000476379 -0.000619946 -0.000623708 -0.000620079
823.0 -0.000526489 -0.000749252 -0.000222762 0.000637871 -0.000151863 -0.000486007 0.000386199 -0.000108663 -0.000474751 -0.000617636 -0.000621293 -0.000617636
824.0 -0.000524462 -0.000746387 -0.000221926 0.000635424 -0.000151268 -0.000484156 0.000383587 -0.000108627 -0.000473098 -0.0006153 -0.000618847 -0.000615163
825.0 -0.0005224 -0.000743453 -0.000221053 0.000632927 -0.000150673 -0.000482253 0.000380995 -0.000108547 -0.000471393 -0.000612885 -0.000616319 -0.000612608
826.0 -0.000520361 -0.000740476 -0.000220116 0.000630418 -0.000150123 -0.000480296 0.00037843 -0.000108539 -0.000469672 -0.000610413 -0.000613732 -0.000609997
827.0 -0.000518376 -0.000737512 -0.000219136 0.000627944 -0.00014962 -0.000478324 0.000375906 -0.000108646 -0.000467996 -0.000607954 -0.000611147 -0.000607389
828.0 -0.000516466 -0.000734606 -0.00021814 0.000625536 -0.000149163 -0.000476373 0.000373349 -0.000108907 -0.000466466 -0.000605606 -0.000608647 -0.000604849
829.0 -0.000514581 -0.000731743 -0.000217161 0.000623162 -0.00014871 -0.000474452 0.000370775 -0.000109277 -0.000465049 -0.000603356 -0.000606225 -0.000602374
830.0 -0.000512728 -0.000728799 -0.000216071 0.000620763 -0.000148328 -0.000472435 0.000368203 -0.000109772 -0.000463743 -0.000601164 -0.000603837 -0.000599915
831.0 -0.000510901 -0.000725915 -0.000215015 0.000618408 -0.000147943 -0.000470465 0.000365726 -0.000110307 -0.00046252 -0.000599058 -0.000601526 -0.000597527
832.0 -0.000509095 -0.000723166 -0.000214071 0.000616131 -0.000147512 -0.000468618 0.000363429 -0.000110784 -0.000461322 -0.000597027 -0.000599301 -0.000595234
833.0 -0.000507372 -0.000720504 -0.000213132 0.000613938 -0.00014712 -0.000466818 0.000361271 -0.000111248 -0.000460164 -0.000595043 -0.00059713 -0.000592991
834.0 -0.000505712 -0.000717923 -0.000212212 0.000611817 -0.00014675 -0.000465067 0.00035917 -0.000111749 -0.00045906 -0.000593124 -0.000595022 -0.000590806
835.0 -0.000504083 -0.000715421 -0.000211339 0.000609752 -0.000146372 -0.00046338 0.000357212 -0.000112169 -0.000457945 -0.000591238 -0.000592963 -0.000588678
836.0 -0.000502478 -0.000712985 -0.000210507 0.000607732 -0.000145986 -0.000461746 0.000355404 -0.000112486 -0.000456797 -0.000589369 -0.00059095 -0.000586606
837.0 -0.000500905 -0.000710592 -0.000209687 0.000605749 -0.000145609 -0.00046014 0.000353764 -0.000112748 -0.000455635 -0.000587512 -0.000588962 -0.000584568
838.0 -0.000499341 -0.000708213 -0.000208872 0.000603777 -0.000145235 -0.000458542 0.000352242 -0.000112942 -0.000454426 -0.000585632 -0.000586973 -0.000582537
839.0 -0.000497771 -0.000705871 -0.0002081 0.000601821 -0.000144835 -0.000456985 0.000350821 -0.000113051 -0.000453157 -0.00058374 -0.000584997 -0.000580534
