0.0      0      0      0      0      0      0      0      0      0      0      0      0
1.0 -0.00357232036775721 -0.00528730022445128 -0.00171498470863007 0.00442981272207225 -0.000928665403595568 -0.00350114731847668 0.0071862024193468 0.000267004464410144 -0.00276303199766756 -0.00354781809092398 -0.00350148695399714 -0.00348198217125069
2.0 -0.0115028969269282 -0.0165158444994185 -0.00501294521836199 0.0140093719620772 -0.00324497217941124 -0.0107643755229859 0.022623411960193 0.000329637395796665 -0.00889722212700398 -0.0111704433764622 -0.0109793940958967 -0.0108847351449663
3.0 -0.0233226512042343 -0.0303574744675191 -0.00703482205136446 0.0268400392191404 -0.00814388842490736 -0.0186961383051945 0.0456321115295111 0.000447954089247131 -0.0162523582222192 -0.0201001679537919 -0.0198019633174561 -0.0195937006278657
4.0 -0.0311712150832327 -0.0376817268544495 -0.00651054511086447 0.0344264588107941 -0.0123302899856263 -0.0220961623957308 0.0617265599016153 0.000939700671373561 -0.0198051601139898 -0.0243802218118921 -0.0241035135015859 -0.0238348746253017
5.0 -0.0409850246480154 -0.0539956208565693 -0.0130106133720179 0.047490316493252 -0.0139871824714236 -0.0335031307119131 0.0523786453693762 -0.0178680047547619 -0.0363188407035445 -0.0386908024028714 -0.0361618779497778 -0.0348461616264377
6.0 -0.0340210289387107 -0.0443200255108522 -0.0102989908521946 0.0391704997429073 -0.0118610046909889 -0.0273095224595689 0.0395483578580832 -0.0189041333819872 -0.031917096089915 -0.0328771144752083 -0.0302212267213071 -0.0288849946286393
7.0 -0.0164644688315891 -0.0146264558890359 0.00183802559109047 0.0155454433605319 -0.0091512349707638 -0.00639422249940194 0.02802342915056 -0.00471516404697584 -0.0103065264943924 -0.0105460234622818 -0.00967428367499165 -0.00917051381412997
8.0 -0.00313184900181929 0.00355916109359214 0.00669096808759931 -0.000213665827095089 -0.00491140127279524 0.00512506080654773 0.0167234840885605 0.00470402743650238 0.00302534500323954 0.00268468369845228 0.00250343702905568 0.00244376618479017
9.0 0.000839290317495958 0.00975830452890026 0.0089189925855138 -0.00529880245862692 -0.00403984253844502 0.00933864660915491 0.012491380923077 0.0059963321317758 0.00628439284325605 0.00662426956776224 0.00639879588567821 0.00634522433460519
10.0 0.00194687070728719 0.0106191328177944 0.00867227038510442 -0.00628301648465179 -0.00336269541385731 0.00964571272841973 0.00959720549921653 0.00489116681774487 0.00583178346528853 0.00672485041089766 0.00680473025597539 0.00690966735487206
11.0 0.000859617976564506 0.00881405599421833 0.00795444567382462 -0.00483684529221877 -0.00354741084279493 0.008384256562257 0.00695499374380018 0.00164614018925739 0.00303438570692174 0.00471200029952267 0.00538095377032667 0.0057925977076041
12.0 -0.00257424171161496 0.00485063368280948 0.00742488321741897 -0.00113819735084354 -0.0049995609170938 0.00613775848788493 0.00527924967712345 -0.00386333027676169 -0.00156866330729138 0.0012800074796213 0.00276223631605536 0.00360885401782606
13.0 -0.00621948099515045 0.000723448978400105 0.00694291944507018 0.00274800802763364 -0.00658118971961496 0.00383318180521174 0.00845598215504975 -0.00704293480986326 -0.00549341214608199 -0.00199799807904111 0.000112503663503833 0.00131041235110915
14.0 -0.0100728007538882 -0.00326782586397961 0.00680496946977947 0.00667030920039708 -0.00843885544643158 0.00176857056400628 0.0154114836755393 -0.00906442853812218 -0.00892260906425183 -0.00493185797166533 -0.00229138980846523 -0.000777464188113795
15.0 -0.0133949694911724 -0.00442894952842109 0.00896598806081811 0.00891194769082368 -0.0111804635040563 0.00226852348034414 0.0248873711362755 -0.00961569166067563 -0.0103414077933792 -0.00561953354988504 -0.00261452398749895 -0.000825662743937958
16.0 -0.0162396258551586 -0.00272286689558936 0.013516721672925 0.00948125072255341 -0.0148781416422699 0.00539693368228257 0.0359315559563894 -0.00927441052815956 -0.00977920048312696 -0.00395917991830756 -0.000753819150074266 0.00126808968038698
17.0 -0.0181009615206057 -0.000710396940827981 0.0173905453843747 0.00940568632060863 -0.0177457611756764 0.00834010172144651 0.0456279288384188 -0.00997876097003925 -0.00958193508649729 -0.0024859201567428 0.00103020819555092 0.00332110407373372
18.0 -0.0205534397644479 0.00112135782738178 0.0216748313773374 0.00971607130410276 -0.0211141395468384 0.0113980820737193 0.0540145347529375 -0.0130030886587484 -0.0106364863537837 -0.00156185722359247 0.00259829171321689 0.00534260301109399
19.0 -0.0236215422047536 0.000205617579867399 0.0238271834851334 0.0117079990353101 -0.0237243648917858 0.0120163729767546 0.0610099421866026 -0.0192253139350104 -0.0146433672871551 -0.00324737262001373 0.00204514106560877 0.00543768979198743
20.0 -0.0265862001853783 -0.00228192516904966 0.0243042823655681 0.014434108268029 -0.0254452665888807 0.0110111716902889 0.0701943939815901 -0.0257185075733594 -0.0197157911379379 -0.00631209672735659 0.000207702679018058 0.00425244440941822
21.0 -0.0299485432286343 -0.00602896609635004 0.0239195809157198 0.0179887781329355 -0.0269340508440012 0.00894530385341757 0.0815029497103021 -0.0303209533559363 -0.0249724799460035 -0.0102676391445872 -0.00261060387347889 0.0020157133563838
22.0 -0.0328469232666288 -0.00776327310818429 0.0250836666619893 0.0203051029922369 -0.0289652891839722 0.00866019737208133 0.096420736556375 -0.0333200061523652 -0.029292071264013 -0.0133606323173591 -0.00462650377384993 0.000570707176020766
23.0 -0.0329596224512423 -0.00487394370819431 0.0280856726833704 0.0189167685714997 -0.0305226203318719 0.0116058575160859 0.112399260034408 -0.0326272922636174 -0.0300731013455093 -0.01328444124188 -0.00393447031018348 0.00161619401302343
24.0 -0.0316317822311222 0.000729845249222375 0.0323616001011038 0.0154509488921861 -0.0319966771451371 0.0165457312160292 0.122250989928739 -0.0339404239780818 -0.0305976920137083 -0.0120648871163296 -0.00191397020017279 0.00410176610306138
25.0 -0.0254225742674063 0.0102139996453728 0.0356365598177708 0.00760429226244935 -0.0305295598245004 0.0229252841284643 0.120132154361177 -0.0359337332136535 -0.0298875180153227 -0.00932561159648871 0.00167413846447239 0.00812384342165429
26.0 -0.0162153977246562 0.024029596480014 0.0402449481329817 -0.0039070677170337 -0.028230198324517 0.0321372745700463 0.106537342930563 -0.0337548096767661 -0.0253244575376545 -0.00338531764192166 0.00789425324283303 0.0144889316426986
27.0 -0.00168404456636926 0.0402853305068967 0.0419693513552659 -0.0193006266711609 -0.0218267110346855 0.0411273420963705 0.0924884928745137 -0.0217459965088933 -0.0153835987569018 0.00531654110690834 0.0157131708037162 0.0218093232591526
28.0 0.0140784130421668 0.0589335861883587 0.0448551609360136 -0.0365059669647003 -0.0153883709735622 0.0518943499024045 0.0911167084646135 -0.000811641031322221 -0.0004353182367304 0.0172180775894418 0.0256820212080472 0.0307911673899829
29.0 0.030742672044953 0.0777652665539405 0.0470225882231095 -0.0542539767504083 -0.00813994879527528 0.062393915208318 0.0812593656085875 0.0155336294151422 0.0137728574164853 0.0293950407779771 0.0362321090901077 0.0404702618323224
30.0 0.0458178933778098 0.0962165646631004 0.0503984254524801 -0.0710171358175376 -0.00229026610476196 0.0733073674889416 0.0624278541888992 0.0282034756370878 0.0279305847481365 0.0423153384234077 0.0475427438207465 0.0509250379805753
31.0 0.0573255728531822 0.113975832057065 0.0566499870894988 -0.0856505089155852 0.000337792847129966 0.0853127226016222 0.0457380413826353 0.0399985438898148 0.0413245070524895 0.0549757675187478 0.0586237680884702 0.0612684252508322
32.0 0.0645556499454908 0.127944637304849 0.0633889928312116 -0.096250286586577 0.000583328054076153 0.0956668886315833 0.0386013571513259 0.0514062489753501 0.0519563084050869 0.0645929511951675 0.0667939586132216 0.0688302523042663
33.0 0.0703315644119323 0.139579270632395 0.0692479031148484 -0.104955491119611 0.000541847371337688 0.10441352770589 0.0222727210240415 0.0572246668719153 0.0593701595837681 0.07206912899006 0.0735050795394041 0.075246087466153
34.0 0.0744295753495532 0.149554719752819 0.0751250516883152 -0.111992015621863 -0.000347729560378733 0.11233987952032 0.000872325198445288 0.0580677553459535 0.0640212450493735 0.0777427748129237 0.0789789951500186 0.0807039393225779
35.0 0.0781751363487924 0.159132092210348 0.0809568110925852 -0.11865371617927 -0.00139081838411892 0.120044327161139 -0.0227476392981154 0.057777970874138 0.0685613252711436 0.0834293045526047 0.0845440225446665 0.0862678778590613
36.0 0.0824127996207386 0.166521060814899 0.0841082351855282 -0.124466958416757 -0.000847685688459817 0.125314826508597 -0.0569106838855774 0.0526093631360896 0.0700521673864885 0.086651958239281 0.0881551620177565 0.0900660811463746
37.0 0.0847056792033837 0.173685400015216 0.0889795133449821 -0.129195675424694 -0.00213691510444413 0.131332281720877 -0.0889161479360818 0.0448261963966265 0.0703460649742742 0.0897360145851775 0.0919516748135673 0.0942704384018155
38.0 0.0883101440336976 0.180336725001815 0.0920262800854146 -0.13432335887831 -0.00185807186550231 0.136181169876687 -0.108615906732361 0.04585082999083 0.0741622266764281 0.0938400175797091 0.0959226570197292 0.098208056955001
39.0 0.0948165203342941 0.181661922152572 0.0868450043251365 -0.138239182303762 0.00398578028758561 0.134253413278191 -0.132140078519529 0.0451556300484483 0.0748040278281464 0.0937240477795895 0.0961067603255712 0.0983478135971486
40.0 0.10197966619154 0.181572199107524 0.0795927164388515 -0.141776155199941 0.0111933893090587 0.130582723169279 -0.164704294124123 0.0381254998311184 0.0726036613471235 0.0917550119270478 0.0949453716534549 0.0973082311911291
41.0 0.107780317649136 0.183162081931184 0.0753817617220746 -0.145471314360535 0.0161992339129446 0.129271864376795 -0.1860997336252 0.0357422289466262 0.0733919256248809 0.0927282074643205 0.0962602600648006 0.0986637499389114
42.0 0.112170680420163 0.189776201342869 0.0776053255273749 -0.150973742459878 0.0172827032882304 0.133690588301499 -0.196449527564186 0.0395546721384393 0.0795199083681642 0.0994116486530249 0.102564739529975 0.1048190372849
43.0 0.114832607571465 0.197655647727285 0.0828230851231329 -0.156244040307045 0.0160047017486687 0.140239446083059 -0.20446466987629 0.0454056838063861 0.0875768836824323 0.108339381376437 0.11074571520906 0.112757756888472
44.0 0.117443139546819 0.206186977728123 0.0887437157726839 -0.161815013673081 0.0143497540477412 0.147465217941014 -0.210541394704844 0.0521895715491051 0.0960217347384257 0.117590382718778 0.119218789236094 0.120951339178943
45.0 0.122882577296573 0.2166603775981 0.0937775917267062 -0.169771696896181 0.0145526357879182 0.155218991129546 -0.224627343810885 0.0536871354017284 0.102470571587991 0.125854014432485 0.127279897978726 0.128940372439926
46.0 0.128250479193651 0.225124881946999 0.0968742953776955 -0.176687793543995 0.0156881170074694 0.160999591991674 -0.238528458848498 0.0534874125390054 0.105937487727458 0.131206663232395 0.132966901672108 0.134780952299179
47.0 0.132088613266764 0.230594526685778 0.0985063433349416 -0.181341385539039 0.0167911478872902 0.164550436724318 -0.245144821350317 0.0546762763348527 0.107623784041104 0.134250931280411 0.136518081343389 0.138581011723666
48.0 0.134519135652952 0.234510753885721 0.0999923247498408 -0.184514849819869 0.017263412103564 0.167251782796938 -0.24473200827584 0.05763965625241 0.108356045966371 0.135879274346524 0.138693649981448 0.141064712077187
49.0 0.135997454736213 0.235942194420736 0.0999452974814726 -0.18596953310108 0.0180259850131465 0.167943774257012 -0.243543279938843 0.0596514357048693 0.106799522592871 0.135139706187943 0.138765628461107 0.141557808473762
50.0 0.137659507376967 0.235388979384289 0.097729759164761 -0.1865238507294 0.0199647288741815 0.166559141249787 -0.24232045624065 0.0637619785658705 0.106300004819077 0.133942390937249 0.1378070661745 0.140641370689424
51.0 0.13753408125194 0.235615574798407 0.0980818839737552 -0.186574383289008 0.0197259510937296 0.166848733295887 -0.23484000513426 0.0649702665892918 0.104206877287653 0.132064502022451 0.136326708391448 0.139393272892395
52.0 0.136297283340941 0.236954430247715 0.10065734790124 -0.186625627841304 0.0178198432431937 0.168806133684071 -0.233015674704676 0.0599229108110277 0.100766720120792 0.131038073978978 0.136252615257151 0.139936557319488
53.0 0.132664501377603 0.238738763557497 0.106073880459531 -0.185701514601068 0.0132952803412081 0.172406205338298 -0.2488045174949 0.0440253916819441 0.0937676956300997 0.129658632678181 0.136987385043315 0.141902291381506
54.0 0.124867196949823 0.239533140202164 0.114666231933856 -0.182200107897574 0.00510046215119731 0.177099868602236 -0.270881060433229 0.0152232361568266 0.0813724568343354 0.125759309931888 0.136303560439436 0.143054484806627
55.0 0.118348040172587 0.237846054027483 0.119497677276386 -0.178097258459197 -0.000574775660407301 0.178671959621722 -0.309119623972877 -0.0286746724057739 0.0622721524170935 0.118166364898221 0.13353283305805 0.142768470550766
56.0 0.11785797514444 0.23444385028588 0.116585701868669 -0.176151021524209 0.000636343092268761 0.175514824453522 -0.361832209581526 -0.068295255588534 0.0459472060581933 0.111874682432206 0.131916248979823 0.143320392560095
57.0 0.121445993881065 0.238532649398958 0.117086566315962 -0.179989377655607 0.00217979095497316 0.177809875358663 -0.400715037857048 -0.0982223580608038 0.0373793148828559 0.112189241967294 0.135689964002325 0.148636468374859
58.0 0.128253748260767 0.250923208488345 0.122669414305854 -0.189588264614942 0.00279202233274468 0.186796691705231 -0.423129023065051 -0.120278600224309 0.0362460894880924 0.118960971650696 0.144616088139473 0.158474996956519
59.0 0.135303248226993 0.264179081694714 0.128876295020524 -0.199740812319236 0.00321341184308343 0.196527884142678 -0.435453414524352 -0.13547020582952 0.0395194046958824 0.127999656992256 0.154579010770678 0.168776628962369
60.0 0.14173630973997 0.275566050670806 0.133829978541172 -0.208650998663227 0.00395296244269821 0.204698115397391 -0.443673363382138 -0.146232670412152 0.0429356505597038 0.136112260420422 0.163391576913567 0.177834888318139
61.0 0.148599222937427 0.282683816207309 0.134085200786804 -0.215641668710102 0.00725700352766201 0.208384560385115 -0.446363100393499 -0.15217790751493 0.0467724885031031 0.142892229441696 0.170506175958846 0.184933810076692
62.0 0.151990132844613 0.279471438552389 0.127481133267775 -0.215731105072362 0.0122545444222013 0.203476070025586 -0.442542152078033 -0.156895004573692 0.0440822896431151 0.140866434835306 0.169359092912784 0.184082387457111
63.0 0.156000678692297 0.269472356047215 0.113471540062342 -0.212736924382263 0.0212646650717741 0.191471861175738 -0.429299689347984 -0.155928496702055 0.0414111583385065 0.135622736613686 0.164216480858721 0.178667438882056
64.0 0.162856620166037 0.258398609747565 0.0955417733443515 -0.210627824489444 0.0336575454860945 0.176969977002312 -0.414268542325967 -0.152675517806585 0.0416291760371722 0.132054750667801 0.15985387188563 0.173396567855342
65.0 0.170294822357133 0.246222380493434 0.0759273982966581 -0.208258709294029 0.0471837506156784 0.161074560609484 -0.396632947389759 -0.142573535804442 0.0459391138990685 0.130603172389019 0.156523565170985 0.168533196876168
66.0 0.175328306961542 0.227863925612355 0.0525358274805022 -0.201596171818469 0.0613961625658318 0.140199804324237 -0.376478030744575 -0.129370672768049 0.0509315552286608 0.128374109345547 0.151817883414458 0.162001910294653
67.0 0.178121417584755 0.207403832758614 0.0292824644574874 -0.192762653759667 0.0744193592026343 0.11834299498114 -0.354814606751721 -0.118245827469408 0.054991046250054 0.125863179408382 0.147058675952162 0.155554216059968
68.0 0.17718915806844 0.186469750809071 0.00928066663151818 -0.181829469156031 0.0839542580793074 0.097875202411218 -0.332553629961476 -0.11190006407714 0.057788456033778 0.123039750798354 0.142307332246855 0.149236405354885
69.0 0.174495771697391 0.166346952321222 -0.00814902393346826 -0.170421369585855 0.0913225254772729 0.0790989366862438 -0.319383229211936 -0.121363248974557 0.0523065659882323 0.115749352665909 0.135444107561498 0.142002942480678
70.0 0.171608010157239 0.156576146724608 -0.0150320172593982 -0.164091839744578 0.0933200066504124 0.070771929273099 -0.305281451190245 -0.12713256527912 0.0539474102092298 0.11608347994552 0.135396021206883 0.141318847411757
71.0 0.17106119204107 0.15182263382912 -0.0192389770384746 -0.161441790052689 0.0951502022047172 0.066291637361502 -0.295106237276225 -0.131932311300619 0.0575829609055078 0.119436420053173 0.138540550643304 0.143967593312589
72.0 0.17162731979594 0.151201763684045 -0.0204257232071094 -0.161414721076144 0.0960266063358712 0.0653879461527146 -0.286235327550487 -0.13291225133288 0.0632534374847962 0.125755862894633 0.144769684113546 0.149876963497133
73.0 0.17053159748271 0.152206714289997 -0.018324872175679 -0.161369248209752 0.0944282785024592 0.0669409314366992 -0.2759961280704 -0.133151329832899 0.0682251496039962 0.133363279881998 0.153031228818037 0.158236866947429
74.0 0.168863697182461 0.150100627494205 -0.0187631125359759 -0.15948220986701 0.0938133545634544 0.0656686415241683 -0.267427061750239 -0.136391292665282 0.06915063232971 0.137947253224061 0.159277015018261 0.164967051938413
75.0 0.166054087966182 0.148909657942018 -0.0171441609662848 -0.157481654825366 0.0915990015349321 0.0658826887935179 -0.260283526406929 -0.141206697152491 0.0668182910051782 0.139803481077485 0.163302173842556 0.169849044748049
76.0 0.163436911003604 0.15120187847587 -0.0122352724660236 -0.157319282445669 0.0878360818202892 0.0694831703832347 -0.251507574342553 -0.140986081003865 0.0676659771091179 0.143737682569504 0.168595066484839 0.175719865604545
77.0 0.161324906440421 0.153229561495751 -0.00809555094934992 -0.157276933561581 0.0847101338300087 0.0725668326820821 -0.242587496520724 -0.136449481535155 0.0701478020023535 0.14689353576343 0.17212627325241 0.179351604913285
78.0 0.160577753689917 0.156827484804086 -0.00375017697936889 -0.15870246459581 0.0821638699190115 0.076538611639932 -0.232624290216133 -0.130056822208709 0.0736747218333681 0.150586569502651 0.176080468517453 0.18333960281064
79.0 0.161049481377833 0.161250759637446 0.000201539058832021 -0.161150040892216 0.0804238347040745 0.0807261664015112 -0.224857655439389 -0.126849778771556 0.0766949928846941 0.155575053785576 0.181845796752403 0.189272257679622
80.0 0.16020258498324 0.165575892016085 0.00537368389075179 -0.162888954916333 0.0774143075190778 0.0854748209922836 -0.217635715872197 -0.125284651554458 0.0795978126110121 0.161360961377006 0.188478977081433 0.196110936456394
81.0 0.158315868433757 0.170269707301956 0.0119536447221805 -0.164292641877344 0.0731810867438478 0.0911115959819672 -0.212125510006515 -0.126553601883726 0.0799081363192106 0.165620009543212 0.194151871780269 0.202316108246161
82.0 0.155718205730933 0.175086366190906 0.0193679634736409 -0.16540245340087 0.0681752537589385 0.0972271721516257 -0.207229659123978 -0.126893915761256 0.0802059790488061 0.169426348710069 0.19932603854908 0.208064144312813
83.0 0.154687069510202 0.177756208901843 0.0230691350205366 -0.166221725405181 0.0658090840431163 0.10041286980668 -0.203682574100431 -0.126670282383452 0.0805658087884393 0.172230598529979 0.203300240628303 0.21245119483031
84.0 0.155310509561143 0.177640631467049 0.0223304107717944 -0.166475614889974 0.0664900124844577 0.099985671490906 -0.203893354766862 -0.130648247704604 0.0763010498132804 0.171193934596058 0.204406850480091 0.214370526184094
85.0 0.15421420998145 0.176817921930162 0.0226040062167998 -0.165516088800792 0.0658050101016696 0.0997110172260034 -0.204838824963933 -0.136207960989856 0.0713059575254206 0.170010579137627 0.205398173552339 0.216211580597436
86.0 0.148027889691404 0.175864554383855 0.0278368647029058 -0.161945991201574 0.0600954409853002 0.101850712646959 -0.202959755074964 -0.142627091254035 0.0646116649868151 0.16806612738592 0.205596048334923 0.217464553965775
87.0 0.136277524591692 0.173535356117197 0.0372577404147277 -0.154906321518566 0.0495099523139375 0.105396646902425 -0.195535926627355 -0.147888486383697 0.0521066902665076 0.160270945190914 0.200205523979816 0.213945661193154
88.0 0.125927605367522 0.173778750518943 0.0478513408438088 -0.149853359362562 0.0390380904872666 0.110814975161657 -0.187542397656451 -0.148459323261414 0.043669275312412 0.155100263581719 0.196466853055092 0.211730916793063
89.0 0.119203983922755 0.17333249345295 0.0541288528706885 -0.146268089486884 0.0325374712411671 0.113730515559417 -0.182226908820876 -0.146821638014824 0.038881590916818 0.151265165473954 0.193262705813075 0.209392324009365
90.0 0.114761073922106 0.173049871357153 0.0582891682663715 -0.143905638426816 0.0282359042894144 0.115669584235117 -0.177707374670274 -0.14326485936129 0.0379507028816972 0.150008433761346 0.191919347470466 0.208237406032528
91.0 0.112164767098452 0.171995608079609 0.0598309348487761 -0.142080030340535 0.0261668911369318 0.115913353149108 -0.173547628144213 -0.137553713724946 0.0402484328181526 0.150442956769306 0.191104538824515 0.2067306828981
92.0 0.112557886917326 0.170074431578269 0.0575165444652339 -0.141316320892066 0.0275206826217919 0.113795311736548 -0.168523628831447 -0.12668600116263 0.0481004019731648 0.154161016306405 0.191746188523979 0.205586750243561
93.0 0.114128028276045 0.16552165062428 0.0513934766894022 -0.139825165262467 0.0313673059196045 0.10845754568313 -0.1633235039082 -0.114658051238216 0.0558822270993125 0.156374946794445 0.190644707579857 0.202552955838872
94.0 0.117240531504911 0.155702472049025 0.0384619140773757 -0.136471426910427 0.0393892514439306 0.0970821110311792 -0.164114124984239 -0.11167117457211 0.0550645171757104 0.151896635675365 0.185291223270578 0.196230419455393
95.0 0.115774988948142 0.1464423231453 0.0306674661299913 -0.131108860101747 0.0425537076665167 0.088554876666716 -0.160854533733465 -0.107210219906389 0.0541907722061006 0.147145796705703 0.179445987633994 0.189486024889173
96.0 0.11350186229135 0.136190025575363 0.0226882312038804 -0.124846048982189 0.0454067878767216 0.0794391191380722 -0.157279368319755 -0.105943272717898 0.0476039914464289 0.137213011950123 0.169414615940295 0.17914508160228
97.0 0.111229767474824 0.122164036558537 0.0109342797896152 -0.116697198693292 0.0501477174696089 0.0665491655411591 -0.156125884424602 -0.107891192703561 0.0359550309577271 0.121957548960108 0.154653757370786 0.164485402559093
98.0 0.106983465901592 0.109577077912937 0.00259349622441177 -0.108280497417323 0.0521950319108033 0.0560853029911358 -0.150356988589221 -0.10613130201544 0.0275385081047005 0.109155158338653 0.141180048802653 0.150573736321929
99.0 0.0979871682605993 0.0991643002463554 0.0011770801409995 -0.0985758503474986 0.0484050721744254 0.0501706945091138 -0.139055379585529 -0.100614649798079 0.0211033814468236 0.0980083892903133 0.128358784226528 0.137376598318942
100.0 0.084770218862267 0.0912513262130528 0.00648108066077337 -0.0880108323036049 0.0391445835743359 0.0488662056585273 -0.12207584535803 -0.0889503773991092 0.0192406351770596 0.0893751506726353 0.116267379196436 0.124514310858575
101.0 0.069321985100983 0.0843069800852286 0.0149849812440564 -0.0768145376206768 0.0271685093795596 0.0496459575486637 -0.101159418342395 -0.0709814374419851 0.0223481375635102 0.0830718304623676 0.104683877268081 0.111499909120252
102.0 0.0521312434230545 0.0788714143589359 0.026740163862344 -0.0655013572195409 0.0126955387642913 0.0528057529507061 -0.0770597462593754 -0.0491898220502971 0.0284241017602564 0.0787075477636624 0.0942774074311882 0.0995763689977121
103.0 0.0341175851009141 0.0715555127232694 0.037437923980853 -0.0528365634958083 -0.00166014570336566 0.0544967239963759 -0.0555001461693808 -0.0313448759130306 0.0279270200623171 0.0682378229965988 0.0794382912624566 0.0843640120396709
104.0 0.0187079260558668 0.0619322737132883 0.0432243312269448 -0.0403200904105921 -0.0122582073475595 0.0525783053758459 -0.0394058638795837 -0.0198610343433382 0.0207806423034764 0.0529863817537904 0.061985347973225 0.0675719893922843
105.0 0.00903381773183777 0.0546644744844551 0.0456306822576548 -0.0318491485087821 -0.0182984274365231 0.050147579866943 -0.0310123717491142 -0.0157705445104623 0.0151866597902892 0.0430035807925546 0.0508996698284475 0.0567092861301067
106.0 0.00261897234737898 0.0504548986657647 0.0478358957811181 -0.0265369343164664 -0.0226084859178635 0.0491454222532142 -0.0262410886261118 -0.0146502108903513 0.0118883040908939 0.0374275511756813 0.0444934792805628 0.0502854266256974
107.0 -0.000959283077047541 0.0468951309038189 0.0478543837042777 -0.0229679305786158 -0.0244068628312652 0.0473747459298555 -0.0250218026261958 -0.0159650317448459 0.00859104769434622 0.0329205629890553 0.0397249581068735 0.0455389102699216
108.0 -0.00206788588641939 0.0421477876432048 0.0442156822027226 -0.0200399664395359 -0.0231417870709416 0.0431817290674565 -0.0268311368081965 -0.0189419701986475 0.0043742732960005 0.0275069848278263 0.0343927978006382 0.0401890636074453
109.0 -0.00255019943297255 0.0369585025215244 0.0395086821597835 -0.017204171685092 -0.021029454484213 0.0382336135858814 -0.0288397234170994 -0.021803413917954 0.000391943328744832 0.0221584120130535 0.0290190371436659 0.0346595238756201
110.0 -0.00282368393303757 0.0275550611624628 0.0303787057934392 -0.0123656941313976 -0.0166012116136954 0.02896689441513 -0.0281445266642497 -0.0200409414106613 -0.00152099713210342 0.0156658316846148 0.0210129850754182 0.0254324885488872
111.0 -0.00304416370076395 0.0202833864744046 0.0233275299422159 -0.00861960452297304 -0.0131858408889244 0.02180543957916 -0.0233705968513314 -0.0122956642766404 0.00233287969063061 0.0136860323433172 0.0161473738506104 0.0184311019280377
112.0 -0.00322009795671159 0.0169707337284439 0.02019078730555 -0.00687530707440964 -0.0117054468549121 0.0185807751862712 -0.0206040244680929 -0.00735037494629445 0.00564745566395029 0.0136587002508296 0.0142580911765244 0.0151425558060258
113.0 -0.00319714443885492 0.0155033463571485 0.0187004728010345 -0.00615309296737181 -0.0109488132203424 0.0171019171309278 -0.0213604779391168 -0.00758519654523053 0.00543040155858346 0.0126587161181724 0.0129906242146192 0.0135241169549441
114.0 -0.00261749119431672 0.0146858211672079 0.0173033225053435 -0.00603416087222869 -0.00996040436620826 0.0159945514643293 -0.024805702843109 -0.0115038643371775 0.0025539111331233 0.0106504774288065 0.0118774813072112 0.0127808891710257
115.0 -0.00222070899209573 0.0141676241315113 0.0163883334937739 -0.00597344817377856 -0.00930451753838236 0.0152779440653542 -0.0283044810373562 -0.0158592705162181 -0.000557330305712718 0.00873379413597349 0.0110009396178838 0.0124062764461066
116.0 -0.0020438127462605 0.013672569392305 0.0157163726252577 -0.00581437348593776 -0.00888010048250384 0.014694477380335 -0.0316586335992589 -0.0205200060301218 -0.00404482897987303 0.00662991504579609 0.0100777085680159 0.0120880493916333
117.0 -0.00187761319782306 0.0122826986545176 0.0141602729912769 -0.00520252810834521 -0.00801895438626807 0.0132214891030138 -0.0339005998870343 -0.0237518776783288 -0.00677038997072084 0.00451782118651944 0.0087406030342399 0.0111124466542857
118.0 -0.001559266420996 0.0100864316584702 0.0116456780735419 -0.00426357266629848 -0.00660247806031768 0.0108660589805991 -0.0357263834611209 -0.0263597555928379 -0.00935191590852428 0.00208622872851218 0.00693911653829072 0.00955196376723236
119.0 -0.000858520507044998 0.00747745267626847 0.00833596482491001 -0.00330946241661344 -0.00459724662895939 0.00790670844284004 -0.0372578565667964 -0.0281902185167514 -0.0114179595801323 -0.000272917795177826 0.00501983789176675 0.00771525671216816
120.0 -0.000633678635323452 0.00506455934200748 0.00569823658553295 -0.00221543700945222 -0.00316595625424143 0.00538139780533896 -0.038234911993954 -0.0298486012595915 -0.013532889577502 -0.00266921242761758 0.00303165964167062 0.00583601130527027
121.0 -0.000437911442687856 0.00203367168441438 0.00247158241059573 -0.000797878399407397 -0.00145474622846817 0.00225262793633083 -0.0386937052433466 -0.0307620261210446 -0.0152363608469818 -0.00510917223648643 0.000768226816523802 0.00354899241202756
122.0 -0.000805081000002941 -0.000718390903209377 8.66897279314287e-05 0.000761736837822655 -0.000445886460123736 -0.000315850130065777 -0.0379290861040313 -0.0305150013851859 -0.0159716422262129 -0.0068703074752822 -0.00119387030025515 0.0014166648315231
123.0 -0.00125393796671271 -0.00214303532297424 -0.000889097546154123 0.0016984871010734 -0.000182423006478263 -0.00151606377303457 -0.0367429400507376 -0.0298927399202586 -0.015877542699157 -0.00742256576040016 -0.00201491961754288 0.000428940289018543
124.0 -0.00144200484480177 -0.00276900041225422 -0.00132699566521037 0.00210550286339808 -5.75076304357059e-05 -0.00204799424259181 -0.0360108605137031 -0.0297527421974147 -0.0157731568382977 -0.00745651681366491 -0.0021226133747107 0.000262150433300615
125.0 -0.00150066240045452 -0.002965037834641 -0.00146437548451289 0.00223285023846038 -1.81435192115858e-05 -0.00221470470529953 -0.0354498017924007 -0.0297490342521341 -0.0155832730047819 -0.00718785210716191 -0.00186309623613868 0.000501499137432163
126.0 -0.00158387193828221 -0.00302675065932703 -0.00144287874695318 0.00230530893508321 -7.04956568044536e-05 -0.00223481369706559 -0.0349487900106998 -0.0298564880157636 -0.0154462189105031 -0.00687922428733784 -0.00152750420457293 0.000840218060499969
127.0 -0.00170485887410018 -0.00316607853379075 -0.00146121967302835 0.00243546748708656 -0.000121819602398348 -0.00231365101144395 -0.0344556440817355 -0.0299990437103118 -0.0153841534737238 -0.00664802260449937 -0.0012573206524338 0.00112031641525687
128.0 -0.00189216355797761 -0.00341444499742696 -0.00152228144631572 0.00265330607722354 -0.000184940086402537 -0.00246836420413966 -0.0338864420806275 -0.0301184286474702 -0.0153850008770964 -0.0065174897064279 -0.00109144283287771 0.00129578842022929
129.0 -0.00211836394023245 -0.00368098367722889 -0.0015626197405313 0.00289967473513573 -0.000277871600782624 -0.00262179978859011 -0.0332354859287335 -0.0301650418529242 -0.0153730646889587 -0.00641139741614731 -0.000970094538858989 0.00141905747290712
130.0 -0.00238735336066172 -0.00399372798417315 -0.0016063746253312 0.00319054114933668 -0.000390489595935486 -0.0028000503161746 -0.0325222096436945 -0.0301643422751123 -0.0153757989058136 -0.00635604293191702 -0.000913319833420652 0.00147256584931699
131.0 -0.00269752144318285 -0.0043617580122106 -0.00166423656996458 0.00352964239918581 -0.000516642068930505 -0.00301299678216153 -0.0317600628567219 -0.0301291937468107 -0.0154039891849041 -0.00635994246591894 -0.000926264394315842 0.00145250995975062
132.0 -0.00304610808535256 -0.00478537180553585 -0.00173926857260158 0.00391573889477588 -0.00065341956709218 -0.00326231992707032 -0.0309587351275559 -0.0300676742322547 -0.0154614413546373 -0.00642393830539765 -0.00100768260034835 0.00136095394683518
133.0 -0.00342991656019181 -0.0052615011136992 -0.00183158705156337 0.00434570829605473 -0.000799164656869961 -0.00354654637372084 -0.0301238939745983 -0.0299841849159266 -0.0155482224247897 -0.00654550923618875 -0.00115386531861824 0.0012021336105526
134.0 -0.00384595233398501 -0.00578557758915429 -0.0019396313931205 0.00481576468311562 -0.000953162846235331 -0.00386260324463695 -0.0292596700565925 -0.0298811856332028 -0.0156628627922607 -0.00672077123921479 -0.00136008457414641 0.000981118895731819
135.0 -0.00429116484951427 -0.00635342023747538 -0.00206225854781767 0.0053222899741769 -0.00111445437392693 -0.00420783632497212 -0.0283699365600554 -0.0297603308779569 -0.0158033929119683 -0.00694570639122079 -0.00162171815201871 0.000702779389013355
136.0 -0.0047628191957607 -0.0069606205057334 -0.00219780293668708 0.00586171852804574 -0.00128250875918551 -0.00457921014195183 -0.0274588222780347 -0.0296231031459037 -0.0159676343848587 -0.00721611623969613 -0.00193401876164698 0.000372069640919136
137.0 -0.00525833325451654 -0.00760322522087437 -0.00234489280380081 0.00643077855676036 -0.00145672297547305 -0.00497405577335725 -0.0265293260880942 -0.0294714300999656 -0.0161539805635581 -0.00752839351749105 -0.00229282003017459 -6.61408629874343e-06
138.0 -0.00577502404465874 -0.00827741860359796 -0.00250239499006022 0.0070262185476106 -0.00163631594307616 -0.00538990270341328 -0.0255844959317563 -0.0293065952295114 -0.0163606339485156 -0.00787901211440646 -0.0026941479023184 -0.000429089094296157
139.0 -0.00631076800412685 -0.00898003298617226 -0.00266926520398927 0.00764539906578045 -0.00182074970295179 -0.00582464456179611 -0.0246263861024226 -0.029129695957322 -0.0165860384237788 -0.00826488070717734 -0.0031344669646333 -0.000891668260669271
140.0 -0.00686331229687715 -0.00970766182439949 -0.00284434964178045 0.00828548632478996 -0.00200948045386166 -0.00627600339932602 -0.0236577523410844 -0.0289415398404683 -0.0168283739843359 -0.00868274850069018 -0.00361019591088304 -0.00139065190737019
141.0 -0.00743066261550457 -0.0104575470567736 -0.00302686509234583 0.00894409475344763 -0.00220189831179987 -0.0067421951692511 -0.0226810322274005 -0.0287437070791397 -0.0170862670057194 -0.00912982601953609 -0.00411818589091342 -0.00192273369215206
142.0 -0.00801121489740991 -0.011227089795132 -0.00321587949258059 0.00961914715563685 -0.00239766504489729 -0.00722148630763762 -0.021698208433379 -0.0285376419221869 -0.0173586707017427 -0.00960365346542637 -0.00465563683606488 -0.00248499850486612
143.0 -0.00860327486435699 -0.0120143213635364 -0.00341104401270595 0.010308778459999 -0.00259611648368658 -0.00771268354464644 -0.0207111264803787 -0.0283237967620001 -0.017644269870417 -0.0101021154296597 -0.00522007864263952 -0.00307487335029557
144.0 -0.00920544143004284 -0.0128166271361334 -0.00361116501829413 0.0110110096093021 -0.002797138750468 -0.00821388681428646 -0.0197209790514055 -0.0281028896866773 -0.0179416111275811 -0.0106224780799934 -0.00580863369462841 -0.00368939367966709
145.0 -0.00981623155231963 -0.0136320303351211 -0.00381578813259147 0.0117241425011775 -0.00300023169409639 -0.00872391416911404 -0.0187294475732246 -0.0278753874112869 -0.0182495581068877 -0.0111627517897731 -0.00641902485939023 -0.00432620364324389
146.0 -0.0104340617744141 -0.014458931070316 -0.00402486381310571 0.0124464781125379 -0.00320459926866485 -0.00924189513047714 -0.0177385621197365 -0.0276422579941337 -0.0185672346835085 -0.0117212330154241 -0.00704934236019611 -0.00498334808829657
147.0 -0.0110574085399892 -0.0152957293982525 -0.00423829862794071 0.0131765595431046 -0.00340955995622998 -0.00976702252713071 -0.016749901498937 -0.0274049216656693 -0.0188938987066152 -0.0122962684520516 -0.00769765690424338 -0.00565879187925496
148.0 -0.0116853904737728 -0.0161406797899546 -0.00445524390831734 0.0139130060196102 -0.00361508313476967 -0.0102979589543112 -0.0157640844138453 -0.027162896585617 -0.0192282947637308 -0.012885891022434 -0.00836182537041751 -0.00635035681421446
149.0 -0.0123165834509334 -0.0169923984423345 -0.00467578676320591 0.0146544759594595 -0.00382041069366198 -0.0108340692787838 -0.0147823512445763 -0.026917535838401 -0.019569582483038 -0.0134884087915888 -0.00904003608359717 -0.00705619375049456
150.0 -0.0129501572841739 -0.0178498818485468 -0.00489968577263737 0.0154000361105471 -0.00402524939142745 -0.0113747839330947 -0.0138051949886705 -0.0266692448843814 -0.0199170866389472 -0.0141026596243993 -0.00973093426340384 -0.00777492376724143
151.0 -0.0135850053167204 -0.0187117400483647 -0.0051267244652826 0.0161483811995958 -0.00422915229737952 -0.0119192274679528 -0.0128340824284184 -0.0264190087669074 -0.0202701685048434 -0.0147273174558696 -0.0104329442598117 -0.00850490541546209
152.0 -0.0142203152377834 -0.0195769178458479 -0.00535657791513181 0.0168985966667691 -0.00443187477293264 -0.0124667551190205 -0.0118698657114495 -0.0261673831119588 -0.0206282081440174 -0.0153609233094928 -0.0111445562393195 -0.00924453191275771
153.0 -0.0148551351516094 -0.0204440957096129 -0.00558897210560372 0.01764958093913 -0.00463307739139316 -0.0130165497638902 -0.0109131581985132 -0.0259144113625452 -0.0209900615799631 -0.0160019983044256 -0.0118641195814976 -0.00999219976750599
154.0 -0.0154887324193729 -0.021312400259019 -0.00582368348829661 0.0184005243230806 -0.004832512634687 -0.0135680451846372 -0.0099643823942402 -0.0256605040382866 -0.0213551884056143 -0.0166493929484655 -0.0125903478621453 -0.0107465303712537
155.0 -0.0161202446803172 -0.0221810422366028 -0.00606080076037503 0.019150621828295 -0.00502972314727721 -0.0141209498886503 -0.00902424100031905 -0.0254062121128309 -0.0217231648578751 -0.0173022243595104 -0.0133222391863314 -0.0115065714107466
156.0 -0.0167487913113657 -0.0230498094050117 -0.00630102459506775 0.0198992649631613 -0.00522388154341379 -0.0146754534491886 -0.0080936731524605 -0.0251524014632586 -0.0220940153775922 -0.0179600865435641 -0.0140591322140537 -0.0122715415128669
157.0 -0.0173738219234032 -0.0239171854416567 -0.00654334260554695 0.0206455097206234 -0.00541525085453086 -0.0152302949176969 -0.00717253642399348 -0.0248992267324715 -0.0224665880824282 -0.0186212663921575 -0.0147992794218049 -0.0130397283990115
158.0 -0.0179945679789902 -0.024782244175885 -0.00678763631928359 0.0213884334455668 -0.00560348129729325 -0.0157849707078701 -0.00626101949730065 -0.0246465734541847 -0.0228400473791843 -0.0192845423505672 -0.0155414415377801 -0.0138098624223174
159.0 -0.0186106338301348 -0.0256442662123175 -0.00703357788938121 0.0221274641105142 -0.00578854321101787 -0.0163389304540954 -0.00535922921115204 -0.0243943341810623 -0.023213623463614 -0.0199488973997241 -0.0162845439026829 -0.0145808532862142
160.0 -0.0192214761591984 -0.026502638604809 -0.00728113924430371 0.0228620646352594 -0.00597017872939491 -0.0168918908246332 -0.00446725453038222 -0.0241431328695689 -0.023586968554925 -0.0206134198168226 -0.0170275480814299 -0.0153517030248096
161.0 -0.0198266211853435 -0.0273571428434817 -0.00753049030621291 0.023591861488755 -0.00614807072762965 -0.017443802997211 -0.00358531592435357 -0.0238931936977654 -0.0239597580552598 -0.0212775917217679 -0.0177698709616347 -0.0161218008401559
162.0 -0.020425679445083 -0.0282071812444515 -0.0077814856591968 0.0243164197780273 -0.00632208991140042 -0.0179943022022901 -0.00271387137956117 -0.023645214306273 -0.0243319218982841 -0.0219409039097728 -0.0185108727177887 -0.0168903956153201
163.0 -0.0210179652465205 -0.0290520094419895 -0.00803403588640527 0.0250349819044297 -0.00649196108591477 -0.0185430065767372 -0.00185254581164029 -0.023399020131987 -0.0247027932617198 -0.0226024149679133 -0.0192495446925849 -0.0176565669575379
164.0 -0.0216030285523599 -0.0298915838673753 -0.00828853648164829 0.0257473034094107 -0.00665723690716404 -0.0190900591704884 -0.0010014233158637 -0.0231546668667843 -0.025071980341831 -0.0232615432120715 -0.0199853676227867 -0.0184196954846441
165.0 -0.0221810258354015 -0.0307253968975525 -0.008544361366613 0.0264532099247839 -0.00681833238707875 -0.0196349028748851 -0.000159924244952111 -0.0229122802199198 -0.0254391843968268 -0.0239176980713809 -0.0207175889947565 -0.0191791226992159
166.0 -0.0227515039358838 -0.0315524108951619 -0.00880088256020905 0.02715198093301 -0.00697531561837634 -0.0201766686545041 0.000672199395608112 -0.0226714397137214 -0.0258035238421207 -0.024569799206419 -0.0214451906579771 -0.0199338303315252
167.0 -0.0233142780836215 -0.0323723342746511 -0.00905802422248877 0.0278432940264092 -0.00712812946883936 -0.0207152002405085 0.00149565086014805 -0.0224320259223132 -0.026164544832326 -0.0252172419321776 -0.0221675999426866 -0.0206831971310797
168.0 -0.0238690105609405 -0.033184968406552 -0.00931590257251401 0.0285269832274445 -0.00727656500480443 -0.0212504171847012 0.00231037298122675 -0.0221941714419302 -0.0265219166862131 -0.0258595208755045 -0.0228842794380268 -0.02142675771607
169.0 -0.0244155760279811 -0.0339897743609023 -0.00957416502604096 0.0292026719736575 -0.00742071359526086 -0.0217819384363151 0.00311689430132051 -0.021957604898442 -0.0268752750895285 -0.0264961332702668 -0.0235946613652881 -0.0221639813888021
170.0 -0.0249540555170616 -0.0347867172899093 -0.00983264462625263 0.0298703604857251 -0.00756070476046117 -0.0223096648666968 0.00391599637075917 -0.0217219925092697 -0.0272242384135232 -0.0271265776924414 -0.0242984049089975 -0.022894497903987
171.0 -0.0254840540698975 -0.0355753910988257 -0.0100912796823913 0.0305297092417327 -0.0076963819892039 -0.0228333513663409 0.00470783408791758 -0.0214872594797257 -0.0275683190771143 -0.027750304889572 -0.024994849421568 -0.0236176314633799
172.0 -0.0260056109562367 -0.0363560234017173 -0.0103503829231164 0.0311807860504262 -0.00782761618916089 -0.0233532113868262 0.00549264730935859 -0.0212536584211866 -0.027907848302761 -0.02836746877722 -0.0256841885103544 -0.0243335193553203
173.0 -0.0265184552762363 -0.0371276639498404 -0.0106092419946621 0.0318230435878612 -0.00795460775925588 -0.0238684329465498 0.00627117571064852 -0.0210207856666449 -0.0282421232574239 -0.0289772752436201 -0.0263655514584611 -0.0250414074276029
174.0 -0.027022593127004 -0.0378901631845813 -0.0108675872114712 0.0324563456462489 -0.00807748412581725 -0.024378889148347 0.00704397475119857 -0.0207882878476617 -0.0285707335987964 -0.0295793154749538 -0.027038635573338 -0.0257410044765664
175.0 -0.0275177850505693 -0.0386433470734884 -0.0111255708538535 0.0330805735855877 -0.00819609740355 -0.0248844661453853 0.00781197569255709 -0.0205554008155826 -0.0288930799251526 -0.0301730393757305 -0.0277029939107632 -0.0264319179919021
176.0 -0.028004101849877 -0.0393867863880214 -0.011382737603726 0.0336954237324454 -0.00831066742825432 -0.0253847656930663 0.00857552209992044 -0.0203221193366707 -0.0292089506993685 -0.0307580667145516 -0.0283582993422707 -0.0271137518293511
177.0 -0.0284816770134563 -0.0401206968328217 -0.0116389986185064 0.0343011764280364 -0.00842132678055095 -0.0258798253693224 0.00933551863325128 -0.0200878584842441 -0.0295179944239785 -0.0313342987845797 -0.0290045290181132 -0.0277865931674743
178.0 -0.0289509674169367 -0.0408448012991385 -0.0118938229678639 0.0348978789550916 -0.00852857068416048 -0.0263693248839935 0.0100932849580248 -0.0198518804600631 -0.0298197390296777 -0.031901393654743 -0.0296414770976543 -0.0284502928089122
179.0 -0.0294116260304953 -0.0415592967651339 -0.0121477136352277 0.0354854586163434 -0.00863194570076641 -0.0268535360238958 0.0108489327699598 -0.0196141935957531 -0.0301141355696072 -0.0324592723354577 -0.0302690861321771 -0.0291048224652697
180.0 -0.0298637167977587 -0.042263993520266 -0.0124002988080051 0.0360638779867733 -0.00873171329489435 -0.0273321620323813 0.0116028592062476 -0.0193749962579283 -0.0304015955198513 -0.033008088239821 -0.0308873750660746 -0.0297500705347798
181.0 -0.0303073211566754 -0.0429586968616137 -0.0126513870746939 0.0366330207610219 -0.00882796440273124 -0.0278050501372283 0.0123558024286164 -0.0191338083346704 -0.0306816029205306 -0.0335475321909962 -0.0314961595746013 -0.0303859310447785
182.0 -0.0307425780707422 -0.0436432580355071 -0.0129006858179878 0.0371929241030664 -0.00892095447205635 -0.0282719761322393 0.0131088217184886 -0.0188898004289707 -0.0309536010360367 -0.0340772509453294 -0.0320951992081185 -0.0310122524011401
183.0 -0.0311694620405367 -0.0443176004626051 -0.013148141435345 0.0377435101064396 -0.00901067430287692 -0.0287328731139892 0.013862365361999 -0.0186425940813016 -0.031217303255316 -0.0345970141313666 -0.0326843701816135 -0.0316290050815988
184.0 -0.0315882025355933 -0.0449817817580929 -0.0133935807737537 0.0382849812611942 -0.00909730353254607 -0.0291876581208064 0.014617052294599 -0.0183922855744367 -0.0314730472227644 -0.0351069942685696 -0.0332638998859298 -0.0322362709266232
185.0 -0.0319986265721363 -0.0456355889858363 -0.0136369146929354 0.0388171021749846 -0.00918085215661064 -0.0296362399241315 0.0153731041094997 -0.0181386333592036 -0.0317206186049971 -0.0356070860936213 -0.0338335657478086 -0.03283380095205
186.0 -0.0324010817712517 -0.0462793006798311 -0.0138781943416244 0.0393401883405654 -0.00926145147117828 -0.0300787171169986 0.0161315082327854 -0.0178811249296623 -0.0319599070618161 -0.0360972839356521 -0.0343935443012722 -0.0334219036534791
187.0 -0.0327959411679393 -0.0469130117118009 -0.014117057896636 0.039854499214346 -0.00933945533254979 -0.0305149948976521 0.0168931126332436 -0.0176191082895943 -0.0321906131925811 -0.0365775848752623 -0.0349439264271649 -0.0340007863657796
188.0 -0.0331831542062038 -0.0475366253642359 -0.0143535131665195 0.0403599257693458 -0.00941482757109299 -0.030945072980902 0.0176583538506326 -0.0173524418646145 -0.0324126313832863 -0.0370478903708061 -0.0354847103921671 -0.0345703132294685
189.0 -0.0335628889369357 -0.0481503344431434 -0.0145874186130857 0.0408566059552178 -0.00948772908808201 -0.0313689027005703 0.0184276992152138 -0.017080761655163 -0.032626004301886 -0.037508392289214 -0.0360160893813949 -0.0351308024580953
190.0 -0.0339352318738087 -0.0487541411675696 -0.0148188469296496 0.0413447078280463 -0.00955818934522635 -0.0317865075223573 0.0192016804277568 -0.0168037347138568 -0.0328305113173158 -0.0379589953273692 -0.0365380658090621 -0.0356822723119511
191.0 -0.034300373112696 -0.0493482407573341 -0.0150478355391945 0.0418243179041788 -0.00962626717702667 -0.0321980450846358 0.0199805712112204 -0.0165214807534128 -0.0330264755215324 -0.0383999415387778 -0.0370508349954618 -0.0362249262689913
192.0 -0.0346586531129697 -0.0499329277902895 -0.0152742581492319 0.0422958203583054 -0.00969219180123668 -0.0326035965406491 0.0207651432316161 -0.0162334791703831 -0.0332138206475423 -0.0388314040534939 -0.0375547400895312 -0.0367590631584093
193.0 -0.0350103441840138 -0.0505083539169993 -0.0154980012242202 0.0427593644466546 -0.00975618311127896 -0.033003203668606 0.0215556967088249 -0.0159394619547811 -0.0333925559519694 -0.0392535205193371 -0.0380499577465389 -0.0372849338581066
194.0 -0.0353554894737212 -0.0510748883243047 -0.0157193944702167 0.0432152210847285 -0.00981806804547026 -0.0333971305729962 0.0223523376786025 -0.015639485210791 -0.0335628802776229 -0.0396666043950863 -0.0385368215065481 -0.0378028130797124
195.0 -0.0356944993497841 -0.0516328181106741 -0.0159383165058491 0.0436636752996414 -0.009878097146069 -0.0337855617358609 0.0231557514805154 -0.0153330441082449 -0.0337247019126135 -0.0400709140900469 -0.0390156486361981 -0.0383131818820519
196.0 -0.0360274395140363 -0.0521822910762362 -0.0161548504012904 0.0441048738251757 -0.00993631205898501 -0.0341685921297358 0.0239658057381575 -0.0150203639509427 -0.0338784103173142 -0.0404666311543431 -0.0394865539470247 -0.0388160938398465
197.0 -0.0363546349063625 -0.0527236259062435 -0.0163689904022373 0.0445391347976219 -0.00999283126251932 -0.03454631916645 0.0247830630549887 -0.0147009299750413 -0.0340238178335366 -0.0408538490511404 -0.039949839141542 -0.039311867649866
198.0 -0.0366763498466152 -0.0532573262974238 -0.0165809761431379 0.0449668160730186 -0.0100476914903794 -0.0349191326297568 0.0256071337918294 -0.0143754475640217 -0.0341617497214858 -0.0412333436862757 -0.0404060962123751 -0.0398009584954073
199.0 -0.0369928174470657 -0.053783651556076 -0.0167907854312593 0.0453881989166644 -0.0101010183959052 -0.0352871846634668 0.0264382055148173 -0.0140436976214928 -0.0342923397142363 -0.0416052719042388 -0.0408556299211162 -0.0402836977464648
200.0 -0.0373044003122037 -0.0543029292521822 -0.0169985038803608 0.0458036707225354 -0.0101529737049602 -0.0356506991502676 0.0272764718229202 -0.0137055188358706 -0.0344157536971504 -0.041970005565737 -0.0412985971609829 -0.0407604015525122
201.0 -0.0376113336325008 -0.054815667656386 -0.0172043211230337 0.0462135279622497 -0.0102034951169737 -0.0360099854238396 0.0281218383046856 -0.0133608766822793 -0.0345320285497144 -0.0423277846264023 -0.0417355153758484 -0.0412315237854822
202.0 -0.0379139325629571 -0.0553223710264678 -0.0174083833027097 0.0466181658580939 -0.0102527931560137 -0.0363653968085814 0.0289743533952136 -0.0130099474645322 -0.0346417169706845 -0.04267912077181 -0.0421667965072101 -0.0416974436596304
203.0 -0.0382125049054637 -0.0558235415543599 -0.0176110082517629 0.0470180304698306 -0.0103007821237771 -0.0367172607562345 0.0298337509130433 -0.0126528219449606 -0.0347451034929172 -0.0430244714984092 -0.0425929922607075 -0.0421586960324028
204.0 -0.0385074031958441 -0.0563196318491233 -0.0178121655148932 0.0474134969899602 -0.0103476604990296 -0.0370658913991312 0.0306998453068952 -0.0122896438873136 -0.0348425771925483 -0.0433643149250996 -0.0430143866579342 -0.0426155562518352
205.0 -0.0387989544798764 -0.0568109719555189 -0.0180119849715973 0.0478049526474232 -0.0103934819405498 -0.0374114989739665 0.0315724440150632 -0.0119206813795295 -0.0349345324459026 -0.0436989942292707 -0.0434314170311848 -0.043068457185019
206.0 -0.0390874726809004 -0.0572981199375824 -0.0182106305233916 0.0481927908675964 -0.0104384196303004 -0.0377543857893764 0.0324512053087481 -0.0115460239156344 -0.035021317838516 -0.0440289286776391 -0.0438444540800031 -0.0435177187134231
207.0 -0.0393732649667403 -0.0577815571676907 -0.0184082835865454 0.0485774082658219 -0.0104825142041041 -0.0380949015532219 0.0333358562250574 -0.0111659601645262 -0.0351033554212535 -0.044354673746914 -0.0442539797590472 -0.0439638936689552
208.0 -0.0396567805855182 -0.0582617255368643 -0.0186049405165953 0.0489592516190159 -0.0105259321396226 -0.0384333233360676 0.0342261592022269 -0.0107805902154404 -0.0351810565460414 -0.0446765639194199 -0.0446604362590992 -0.044407315172379
209.0 -0.0399382508130423 -0.0587391921689488 -0.0188009390728684 0.0493387450082345 -0.0105686621019014 -0.0387700848917737 0.0351214582289796 -0.0103903586017728 -0.0352548270569241 -0.0449952080630386 -0.045064196780884 -0.0448483973131961
210.0 -0.040218134347099 -0.0592143945810092 -0.0189962590585876 0.0497162523111992 -0.0106109408524336 -0.0391053124808831 0.036021415586512 -0.00999530494665589 -0.0353250214430929 -0.045310871107492 -0.045465696047323 -0.0452874988254117
211.0 -0.0404966673282442 -0.0596876550483508 -0.019190987115043 0.05009215493193 -0.0106528417581911 -0.0394393136999315 0.0369255662988625 -0.00959586206289234 -0.0353921133140124 -0.0456240775951768 -0.0458653034146386 -0.0457249499456678
212.0 -0.0407742624393075 -0.0601594791158832 -0.0193852648844452 0.0504668918164574 -0.0106944996276805 -0.0397723439403041 0.03783337987727 -0.00919227702496279 -0.0354565405643062 -0.0459352431219557 -0.0462634031072178 -0.0461612117980611
213.0 -0.0410512291707708 -0.0606302240800815 -0.0195790682463905 0.0508407374563669 -0.010736080899904 -0.0401046317178405 0.0387442921065653 -0.00878492932906331 -0.0355186256636486 -0.0462447757166786 -0.046660387003674 -0.0465965702915879
214.0 -0.0413278724083947 -0.0611003649956177 -0.0197725788609811 0.0512141242778439 -0.0107776227393647 -0.0404364402320373 0.0396577699283683 -0.00837409682517628 -0.0355788257376522 -0.0465530309932888 -0.0470565538843455 -0.0470312696527489
215.0 -0.0416044946674002 -0.0615701464236772 -0.0199656961705597 0.0515873234160156 -0.0108193868753871 -0.0407679049796799 0.0405730537272129 -0.00796015059324298 -0.0356375701949478 -0.0468603861015603 -0.0474522516407026 -0.0474657267270702
216.0 -0.0418813972426391 -0.0620398398240032 -0.0201585139654811 0.051960620011061 -0.0108614110091823 -0.0410991927541004 0.0414897524481964 -0.0075432962233999 -0.0356949830591262 -0.0471670837199703 -0.0478476108501404 -0.0479000105512158
217.0 -0.0421587837619892 -0.0625098275426092 -0.0203510805296203 0.0523343064130491 -0.0109038601076551 -0.0414304379409338 0.0424069369833512 -0.00712408108094151 -0.0357517104106467 -0.0474736369358323 -0.0482430868896181 -0.0483344963012227
218.0 -0.0424370016511854 -0.0629802093749495 -0.0205432266423845 0.0527086301643864 -0.0109468676161839 -0.0417617097227648 0.0433240319832298 -0.00670272387785611 -0.0358079392977838 -0.0477802128510587 -0.0486389141901084 -0.0487693771201156
219.0 -0.0427161812478595 -0.0634512307738028 -0.0207351077847303 0.0530837187014879 -0.0109905507526634 -0.0420931407539511 0.0442403045800141 -0.0062796380285073 -0.0358640086109867 -0.0480870915682235 -0.0490351649188161 -0.0492047524391596
220.0 -0.0429964866893782 -0.0639230180998305 -0.0209265614024487 0.0534597831875157 -0.0110349698616162 -0.0424247508064446 0.0451550863725013 -0.00585512369610316 -0.0359202383713073 -0.0483945628440045 -0.0494321188246804 -0.0496408190042864
221.0 -0.0432781965521488 -0.0643955878849496 -0.0211173582535123 0.053836932330617 -0.0110804471249488 -0.0427564530202527 0.0460676451085942 -0.00542947611272825 -0.0359768418469914 -0.0487026302889136 -0.0498298228855254 -0.0500775810628407
222.0 -0.0435613572103682 -0.0648690456786167 -0.0213076714388191 0.0542152220944416 -0.0111268572878082 -0.0430883482373756 0.0469771671459866 -0.00500314808578139 -0.0360340743879766 -0.0490116353971857 -0.0502284468439156 -0.0505152348788228
223.0 -0.0438460410571298 -0.0653433002602874 -0.0214972504362984 0.0545946812894346 -0.0111744269843548 -0.0434202942944799 0.0478828939808921 -0.00457654254116939 -0.0360922130081253 -0.0493216569335182 -0.0506280295650495 -0.050953784451476
224.0 -0.0441323823995816 -0.0658183046690419 -0.0216859662755852 0.0549753247473975 -0.0112232243679447 -0.0437521694856119 0.048784095495187 -0.00414973590545538 -0.0361513032772263 -0.0496327354464815 -0.05102859105698 -0.0513931348009162
225.0 -0.0444203048218225 -0.0662939376903778 -0.02187365552319 0.0553571115844764 -0.0112733330437219 -0.0440838141170475 0.0496800076645086 -0.0037232672729318 -0.0362115627323388 -0.049944940330099 -0.0514300445812606 -0.0518332855502514
226.0 -0.0447098175038177 -0.0667700398835734 -0.0220601855231465 0.0557399237146818 -0.0113247960521493 -0.0444150974580757 0.0505698004899849 -0.00329735594955816 -0.036273103362933 -0.0502583073088581 -0.0518324910424641 -0.0522741879860949
227.0 -0.0450009251714722 -0.0672462865707248 -0.0222453909445944 0.0561236033078704 -0.011377732589453 -0.0447458066496097 0.0514527070473649 -0.00287234772837417 -0.0363360313412648 -0.0505727092158733 -0.0522357397901101 -0.0527157199917636
228.0 -0.0452934361802717 -0.0677225106055691 -0.0224290896354284 0.0565079720733542 -0.0114321554992528 -0.0450757835910692 0.0523279443642556 -0.00244852251650564 -0.0364003528061309 -0.0508881291041784 -0.0526396926761112 -0.0531577216620874
229.0 -0.045587300389754 -0.0681983348239802 -0.022611042264499 0.0568927926678659 -0.0114881199128864 -0.0454047042944635 0.0531948182452985 -0.00202623304518045 -0.0364662649952636 -0.0512045097300064 -0.0530441536151238 -0.053599965118781
230.0 -0.045882297909848 -0.0686733709820122 -0.0227910771032388 0.0572778458668527 -0.0115456056929594 -0.0457322564106216 0.0540524376013196 -0.00160568031043598 -0.0365335298123889 -0.0515216760658198 -0.053449021661158 -0.0540422845292852
231.0 -0.0461782670203778 -0.0691472736511169 -0.0229690087059621 0.0576627762153114 -0.0116046024726119 -0.0460581821014711 0.0549000525777496 -0.0011872458022517 -0.0366023158001819 -0.0518394894869619 -0.0538540507691321 -0.0544844489638567
232.0 -0.0464749789086819 -0.0696195738863069 -0.0231445960459632 0.0580472551646516 -0.0116651534342786 -0.0463821060335221 0.055736840470417 -0.000771229745540857 -0.03667251564805 -0.0521577330704923 -0.0542589201960233 -0.0549260969415858
233.0 -0.0467721217030975 -0.0700897876749015 -0.0233176665217913 0.0584309680178761 -0.0117272322891928 -0.046703737943972 0.056562086629789 -0.000357864134908708 -0.0367440741118133 -0.0524763436624532 -0.0546635133406308 -0.0553670423697869
234.0 -0.0470694378113767 -0.0705574232472747 -0.0234879371996748 0.0588134616507967 -0.0117907769843693 -0.0470226858068722 0.0573751320335525 5.25757531528219e-05 -0.0368169627514147 -0.0527948035571823 -0.0550673820210299 -0.055806898330594
235.0 -0.0473666490653018 -0.0710219363211158 -0.0236552139041376 0.0591943087147413 -0.0118557555745341 -0.0473385537273154 0.0581750551804828 0.000459813902955439 -0.0368911184063705 -0.0531129917945718 -0.0554702469909375 -0.0562452715587737
236.0 -0.0476634181846539 -0.0714827070608878 -0.0238192996336816 0.0595730466110783 -0.0119220545753358 -0.0476509923379896 0.0589611390790519 0.000863444565653891 -0.0369663144838193 -0.0534306520261439 -0.05587177041514 -0.0566818625601468
237.0 -0.0479593289386176 -0.0719393193325696 -0.0239799474125948 0.0599492916329917 -0.0119897126030239 -0.0479596277049266 0.0597327720206326 0.00126329524866617 -0.0370424828516662 -0.0537474582046215 -0.0562716328158271 -0.0571163230757532
238.0 -0.0482540700101853 -0.0723910737141033 -0.0241369815768402 0.0603225551295968 -0.0120585554600507 -0.0482640247277264 0.0604892509388286 0.00165906997403973 -0.0371194428769924 -0.0540630484013397 -0.0566693786076173 -0.0575481827034912
239.0 -0.0485472385345691 -0.0728373675417374 -0.0242901176160071 0.0606922944241308 -0.012128541987764 -0.0485637168171183 0.0612298742550395 0.00205047081235035 -0.0371971986075356 -0.0543771877737455 -0.0570646762135206 -0.0579770051999082
240.0 -0.0488383845175977 -0.0732775994441558 -0.0244392090623154 0.0610579875463228 -0.0121995539587059 -0.0488584152505998 0.0619539411565916 0.00243723279309573 -0.0372753639722164 -0.0546893672685094 -0.0574570638194204 -0.0584023719066429
241.0 -0.0491271792606719 -0.073711217234756 -0.0245840349551344 0.0614192202244572 -0.0122715790279848 -0.0491476317564587 0.0626608967831956 0.00281902057838939 -0.0373539828159731 -0.0549993733410796 -0.0578461096030137 -0.0588238732182517
242.0 -0.049413162431489 -0.0741375484894609 -0.0247243845037973 0.0617753910339231 -0.0123444167629312 -0.0494309694112125 0.0633500673343433 0.00319566638607741 -0.0374327865942998 -0.055306707902474 -0.0582314457013356 -0.0592410071510703
243.0 -0.0496959514899537 -0.0745561014819725 -0.0248601491919198 0.0621260447994018 -0.0124179154601639 -0.0497081268373923 0.0640209118557807 0.00356674905724883 -0.0375115885394066 -0.055611066013937 -0.0586126401393771 -0.0596533697226161
244.0 -0.0499751069051763 -0.0749662349135652 -0.0249911275964928 0.0624707045969263 -0.0124919970218118 -0.0499787062871483 0.064672860744636 0.00393214396338526 -0.0375901954633198 -0.0559120966136055 -0.0589891794174789 -0.0600604133246011
245.0 -0.0502502568457621 -0.075367424562111 -0.025117118984942 0.0628088337868257 -0.0125665727232308 -0.0502423089199017 0.0653053781689053 0.00429139393811135 -0.0376685564309943 -0.0562094248951457 -0.0593607021440103 -0.0604619045641345
246.0 -0.0505209672937293 -0.075759012399823 -0.0252380685382137 0.0631400105454833 -0.0126414513303262 -0.05049853533253 0.0659179942014036 0.00464438007571569 -0.0377463541045825 -0.0565027123477781 -0.0597268281948068 -0.0608571895761018
247.0 -0.0507868207364031 -0.0761405626310658 -0.025353753957668 0.0634636780798813 -0.0127165343945623 -0.0507471799097498 0.0665101758044487 0.00499076945436074 -0.03782347363589 -0.0567913965491068 -0.0600870707633556 -0.0612458347078376
248.0 -0.0510473596387864 -0.0765115112699366 -0.0254641093219025 0.0637794041913308 -0.0127916256759226 -0.050987797163977 0.0670816000474704 0.0053302063101858 -0.037899855900331 -0.0570753335185632 -0.0604409851611084 -0.0616274711540946
249.0 -0.0513022514202146 -0.0768713738954436 -0.0255691006941575 0.0640867723037408 -0.012866575629431 -0.0512202062747124 0.0676318095675843 0.00566257542078284 -0.0379751308246703 -0.0573539639404288 -0.0607881483821145 -0.0620015694160507
250.0 -0.0515510822692331 -0.0772197070471197 -0.0256685650454916 0.0643853738836335 -0.0129412587490164 -0.0514441200769658 0.0681604718727307 0.00598767191083863 -0.0380491078928379 -0.0576270483947523 -0.0611281000634033 -0.0623677113462437
251.0 -0.0517934935949765 -0.0775559913125185 -0.0257624669669227 0.0646747560185599 -0.0130155133846303 -0.0516591966589222 0.0686673672745092 0.00630518652791861 -0.0381216405065818 -0.0578941725104505 -0.0614604576490912 -0.0627255361216042
252.0 -0.0520291552344925 -0.0778799107754282 -0.0258507397103201 0.0649545399882126 -0.0130892077984333 -0.0518653085215513 0.0691520430404053 0.00661489213978634 -0.0381926531961839 -0.0581550259279178 -0.0617848301195211 -0.0630745183525864
253.0 -0.0522576546209802 -0.0781910116840014 -0.025933348913319 0.0652243367475137 -0.0131621286128623 -0.0520621474307361 0.069614266100823 0.00691647288793674 -0.03826201007063 -0.0584093033139629 -0.0621008706171909 -0.0634143390459298
254.0 -0.05247868232369 -0.0784889634051628 -0.026010276885954 0.0654838489748472 -0.0132341659797823 -0.0522496032249408 0.0700540620281232 0.00720987290898226 -0.0383293500561961 -0.0586565563649447 -0.0624080609421185 -0.0637445913850625
255.0 -0.0526919334876117 -0.0787734501688095 -0.0260815630406779 0.0657327295297024 -0.0133051663099505 -0.0524274736342214 0.0704710558322404 0.00749495670150135 -0.0383945357891785 -0.0588965542912798 -0.062706182840997 -0.0640649688994896
256.0 -0.0528971056133551 -0.0790442123757514 -0.0261471306285534 0.0659707026632025 -0.0133750020152816 -0.0525956545287165 0.0708652000239693 0.00777144587524679 -0.0384574965538636 -0.0591290327229336 -0.0629948328394669 -0.0643749741807186
257.0 -0.0530939459335781 -0.0793010193439444 -0.0262070856968166 0.0661974808599813 -0.0134434618545327 -0.0527540437823471 0.0712364701555631 0.00803914859377774 -0.0385180989066291 -0.0593535644443602 -0.0632737547069861 -0.0646743996790348
258.0 -0.0532821787639553 -0.0795435582393553 -0.0262613858005433 0.066412867585928 -0.0135103885600001 -0.0529024432618738 0.0715849021605255 0.00829800976589088 -0.0385761285917644 -0.0595699295222625 -0.0635425254182711 -0.0649628474303563
259.0 -0.0534615166223515 -0.0797716194936622 -0.0263101061275349 0.0666165675865846 -0.0135757011692634 -0.0530408480057572 0.0719103204602137 0.00854787002801002 -0.0386313297509782 -0.0597778691754917 -0.063800878677839 -0.065240064040867
260.0 -0.0536318115111239 -0.0799851437391117 -0.0263533339043128 0.0668084773824266 -0.0136392124442704 -0.0531692069404051 0.0722129743011395 0.00878866189455433 -0.0386839103023053 -0.0599771531431362 -0.0640486288757111 -0.0655056764650084
261.0 -0.0537928416820587 -0.0801839063353642 -0.0263911140356485 0.0669883496240924 -0.0137008259936736 -0.0532874937728054 0.0724928464389217 0.00902030210415487 -0.0387333465315997 -0.0601674202886047 -0.064285389342522 -0.0657595411759
262.0 -0.0539443959390361 -0.0803678401554955 -0.0264234696388055 0.0671561054939079 -0.0137604436752304 -0.0533956464477871 0.072750073554123 0.00924269442203003 -0.0387796599436282 -0.0603486302545493 -0.0645109610184081 -0.0660012931688248
263.0 -0.0540863655569424 -0.0805368621227753 -0.0264505096534195 0.0673116073773099 -0.0138179179259661 -0.053493681538311 0.0729848230494917 0.0094558766407465 -0.0388227160511018 -0.0605204711485887 -0.0647251443873575 -0.0662308900950987
264.0 -0.0542185975246728 -0.0806908809494112 -0.0264722901623117 0.0674547359100805 -0.0138731242601569 -0.0535816075762436 0.0731974237018342 0.0096598099929274 -0.0388623485803837 -0.0606827338871689 -0.0649276911791704 -0.0664479219984678
265.0 -0.0543409645517717 -0.0808298981592235 -0.0264889370759977 0.0675854296427565 -0.0139259985917558 -0.0536594289538442 0.0733878992094743 0.00985436777828686 -0.0388986174908216 -0.0608354078714585 -0.0651184735827592 -0.0666523719082693
266.0 -0.0544533525889376 -0.0809538660173246 -0.0265005152140166 0.0677036084214011 -0.0139764108901352 -0.0537271964516362 0.0735566984467012 0.0100396788481472 -0.0389312625337112 -0.0609781480095908 -0.0652972802420779 -0.0668439399717371
267.0 -0.0545557999615806 -0.0810629055075691 -0.026507106465242 0.0678093280209745 -0.0140243427340563 -0.053784984731118 0.0737041010162318 0.0102157658685696 -0.038960198250714 -0.0611109222041447 -0.0654639538303213 -0.0670225688614683
268.0 -0.0546481323224267 -0.0811568848357793 -0.0265088015059503 0.0679024715967034 -0.0140696876014272 -0.0538328322285067 0.0738303478980539 0.0103825434694674 -0.0389852836086104 -0.0612335198537221 -0.0656184133546434 -0.0671881805455892
269.0 -0.0547303084357436 -0.0812359302309093 -0.0265056470168686 0.0679831245542305 -0.0141123421346332 -0.053870807250373 0.0739359027857278 0.010540307337294 -0.0390064945219565 -0.0613459295780957 -0.0657605686000487 -0.0673406863334317
270.0 -0.0548023555924725 -0.0813001066764327 -0.0264977640682542 0.0680512338222074 -0.014152301643873 -0.0538989449613766 0.0740211014303861 0.0106889670965275 -0.0390235759946113 -0.0614479029218513 -0.0658902275652 -0.0674798464890319
271.0 -0.0548643363615247 -0.0813495446649773 -0.0264852149878503 0.0681069661566044 -0.0141895637148069 -0.0539174090225895 0.0740864077950205 0.0108287188180713 -0.0390367363884501 -0.0615394575366319 -0.0660075825227405 -0.067605828710942
272.0 -0.054916185915056 -0.0813843113749833 -0.0264681289010981 0.0681502618463821 -0.0142240300657971 -0.0539262351684188 0.0741323518469088 0.0109597119598412 -0.039045597775899 -0.0616205539902563 -0.066112295781617 -0.0677184282152894
273.0 -0.0549580164373574 -0.0814044899097016 -0.0264465237632409 0.0681812357099953 -0.0142557471395478 -0.0539254903145261 0.0741592549359569 0.0110820234637287 -0.0390501596748648 -0.0616911234634252 -0.0662044360931144 -0.0678177336554663
274.0 -0.0549897886428999 -0.0814102200899376 -0.0264204573371132 0.0681999953760796 -0.0142846418063401 -0.0539153059482422 0.0741677191693937 0.0111959355367122 -0.0390504703565227 -0.0617510820081628 -0.0662839903314742 -0.0679036451127259
275.0 -0.0550116278653218 -0.0814016224156968 -0.0263900078787515 0.0682065962525451 -0.0143107734572469 -0.0538957982794467 0.0741581030352335 0.0113013993833099 -0.0390464091131027 -0.061800434926874 -0.066351048778192 -0.0679762567063385
276.0 -0.0550235986271822 -0.0813788559598733 -0.0263552641942246 0.068201212421819 -0.0143341241478125 -0.0538670756530892 0.0741310277596409 0.0113988265575361 -0.039037865284112 -0.0618390879105507 -0.0664055123526793 -0.0680355683701464
277.0 -0.0550257826644676 -0.081342051133571 -0.0263162720014648 0.0681838849832884 -0.0143547331594764 -0.0538291938458431 0.0740870072312611 0.0114884289300311 -0.0390247333814609 -0.0618671379663922 -0.0664474270863352 -0.0680816771088115
278.0 -0.0550182705747468 -0.0812913721119809 -0.0262731033557163 0.0681548291726213 -0.0143725721952149 -0.053782230091257 0.0740266456387776 0.011570170015076 -0.0390070561379257 -0.0618845865149653 -0.0664768651957786 -0.0681145843415943
279.0 -0.0550012060369482 -0.0812269519329019 -0.02622574683212 0.0681140587557969 -0.0143877237262592 -0.0537263211883758 0.0739503510611113 0.01164446770383 -0.0389847099945331 -0.0618914828069472 -0.0664939608973073 -0.0681343878378594
280.0 -0.0549746630179036 -0.0811489076044044 -0.0261742450684453 0.0680617748970694 -0.014400230209327 -0.0536615375622236 0.0738587217347826 0.011711585648696 -0.038957679861693 -0.0618878036775414 -0.0664986862476099 -0.0681411864492614
281.0 -0.0549387766349314 -0.081057444921072 -0.0261186685342487 0.0679981296764443 -0.0144100649820482 -0.0535880125067734 0.0737524537906611 0.0117717080989784 -0.0389258609324675 -0.0618735857207226 -0.0664911724193714 -0.0681350795846248
282.0 -0.054893713486012 -0.0809527183466333 -0.0260590049883489 0.0679232499050419 -0.0144173598765442 -0.0535058631619756 0.0736319056013731 0.0118251725041984 -0.0388891992515745 -0.061848847775303 -0.0664714869411292 -0.0681161669396085
283.0 -0.0548395593368518 -0.0808349529580845 -0.0259953451676276 0.0678372493853983 -0.0144220857221146 -0.0534151498322262 0.0734977953724008 0.0118723466629694 -0.0388476670424894 -0.061813648058984 -0.0664396645770066 -0.0680845968768961
284.0 -0.0547765038982656 -0.0807042161071435 -0.025927687264652 0.0677403807812277 -0.0144243730595763 -0.0533159520819744 0.0733505413598826 0.0119133228816508 -0.0388011529669595 -0.0617680165426107 -0.0663958687818769 -0.0680404942939063
285.0 -0.0547046448345946 -0.080560736544346 -0.0258560788683042 0.067632677126707 -0.0144242890921774 -0.0532084079102279 0.0731906985202755 0.011948488315668 -0.03874974526542 -0.0617121627328061 -0.0663403292614351 -0.0679839720079898
286.0 -0.0546241779821471 -0.0804046320319315 -0.0257804474389252 0.0675143980248419 -0.0144218684165798 -0.0530925398403988 0.0730189892229555 0.0119781393138313 -0.0386933438065314 -0.0616459518881203 -0.0662730672309228 -0.0679152336563208
287.0 -0.0545351556393477 -0.0802360117140146 -0.0257008526713543 0.0673855800822013 -0.0144171773627268 -0.052968456506404 0.0728356883095799 0.012002525477125 -0.0386318970420394 -0.0615696057589528 -0.0661942391701624 -0.0678343840726197
288.0 -0.0544377988072002 -0.0800551258561244 -0.025617325296877 0.067246436221521 -0.0144102500776975 -0.0528362623530391 0.0726415195027136 0.0120220178985335 -0.0385651843571325 -0.0614831414651085 -0.0661039256359678 -0.0677415257453167
289.0 -0.0543322212584358 -0.0798621032965565 -0.0255298811361556 0.0670971245761483 -0.0144012011793469 -0.0526960111491534 0.0724368553793642 0.0120368561384597 -0.0384933832940543 -0.0613866163393323 -0.0660023136575825 -0.067636954032912
290.0 -0.0542185300833446 -0.0796570103620902 -0.0254384798144082 0.0669377750735023 -0.0143900411543202 -0.0525477790946545 0.0722221788607199 0.0120474546402927 -0.0384163426558877 -0.0612802539743286 -0.0658895480382179 -0.0675207724684913
291.0 -0.0540968774514133 -0.0794400267562561 -0.0253431490657989 0.0667684546010498 -0.0143768724399296 -0.0523916054177425 0.0719978841157791 0.0120539782427812 -0.0383341786829326 -0.0611639753996121 -0.0657657033234941 -0.0673930828709099
292.0 -0.0539674872585478 -0.0792112935109416 -0.0252438546486926 0.066589391670327 -0.0143617962909189 -0.0522276073520661 0.071764610739505 0.0120569969995686 -0.0382467571389987 -0.061037982557472 -0.0656310119674133 -0.0672541317346064
293.0 -0.0538303292097128 -0.0789709802689853 -0.0251406274546367 0.0664006554011751 -0.0143448163145183 -0.0520558452502577 0.0715224939220375 0.012056464742398 -0.0381539603990763 -0.060902379409091 -0.0654855936387837 -0.0671040459564949
294.0 -0.0536856303056308 -0.0787191258442457 -0.0250334833867974 0.0662023784156506 -0.014326079925833 -0.0518763016628788 0.0712720399343663 0.012052891416516 -0.038055824947778 -0.0607572194743514 -0.0653296069825936 -0.0669429393832792
295.0 -0.0535335074077264 -0.078455847257066 -0.0249223335935062 0.0659946775077971 -0.0143055659763825 -0.0516890646455667 0.0710136064467568 0.012046588064359 -0.0379523210482554 -0.0606025303056309 -0.0651631821896582 -0.0667711617401312
296.0 -0.0533740691963687 -0.0781813017889877 -0.0248072293720759 0.0657776613232956 -0.0142834091368739 -0.0514942280492872 0.0707475231482308 0.0120377148125636 -0.0378433848724288 -0.0604384716451502 -0.0649864833217624 -0.0665886989903672
297.0 -0.0532073716209074 -0.0778955218901947 -0.0246881486113311 0.0655514343129982 -0.0142595816979289 -0.0512918401891181 0.0704741538422466 0.0120264996534273 -0.0377290805999145 -0.0602651257292268 -0.0647996433583231 -0.0663957865046129
298.0 -0.0530335890425058 -0.0775986698243297 -0.0245650799282975 0.0653160987682319 -0.0142342149526622 -0.0510818774186104 0.0701938313752329 0.0120133510750043 -0.0376092471933493 -0.060082583413003 -0.0646028277967153 -0.0661925454531727
299.0 -0.0528527627040466 -0.0772907806063942 -0.0244380174629467 0.0650717558685865 -0.0142073764916098 -0.0508644246031412 0.0699065815405811 0.0119984793695589 -0.0374840928658285 -0.0598909885080079 -0.0643961703554066 -0.0659792808120949
300.0 -0.0526650593957099 -0.0769720663397753 -0.024307006717859 0.0648185547406825 -0.0141790525914519 -0.0506395254319495 0.0696128057717746 0.0119820413162546 -0.0373534336906256 -0.0596904150493369 -0.0641798369122402 -0.0657560040269208
301.0 -0.0524705164627877 -0.0766424906585739 -0.0241719740793337 0.0645565236364983 -0.0141492847066956 -0.0504072023965353 0.0693127107293394 0.0119645057808885 -0.037217223500445 -0.0594809981894509 -0.063953864342831 -0.0655228665479684
302.0 -0.0522692501695955 -0.0763021318801124 -0.0240328816505664 0.0642857256196933 -0.0141181912171069 -0.0501675155950266 0.0690064513227972 0.0119458715417731 -0.0370755840861474 -0.0592627589863417 -0.063718514227782 -0.0652800919009108
303.0 -0.0520613203697468 -0.0759511758807299 -0.0238898554801202 0.0640062901945631 -0.0140857360266264 -0.0499205444856845 0.0686940587812008 0.0119262835280561 -0.0369284325883672 -0.0590359023582386 -0.0634739697498215 -0.065027892196915
304.0 -0.0518468063956251 -0.075589621312035 -0.0237428634198816 0.0637182355113876 -0.0140519975914921 -0.0496662814547702 0.0683757917782667 0.0119061559857106 -0.036775774869933 -0.0588004367596369 -0.0632202766932304 -0.0647663281128071
305.0 -0.051625797607409 -0.0752176130379475 -0.0235918404004361 0.0634217164721274 -0.0140169677821172 -0.0494047711020423 0.0680516864421595 0.0118855566131342 -0.0366177109877863 -0.0585565606204056 -0.0629576041861296 -0.0644956249628459
306.0 -0.0513982914889302 -0.0748351771159801 -0.0234368499623528 0.063116764301943 -0.0139806909326985 -0.049136036387742 0.0677218584106096 0.0118647628586956 -0.0364540983744408 -0.0583042305354305 -0.062686039296758 -0.0642158017015333
307.0 -0.0511644323029296 -0.0744424239994274 -0.0232779733360835 0.0628034435951068 -0.0139432383861244 -0.0488601861706683 0.0673862216565804 0.0118437234771502 -0.0362850091933224 -0.0580437152756417 -0.0624058694452025 -0.0639272077222888
308.0 -0.0509241972780691 -0.0740393620309921 -0.0231151553008643 0.0624817876051637 -0.01390454983145 -0.0485772764920278 0.0670448774508832 0.0118226546839186 -0.0361105291139845 -0.0577750561673137 -0.062117097039083 -0.0636298288176404
309.0 -0.0506777202495982 -0.0736261895829914 -0.0229484644674128 0.0621519590093316 -0.0138646427395753 -0.0482873362021922 0.0666979264477398 0.011801764826803 -0.0359306537203016 -0.0574983230048372 -0.0618199173952979 -0.0633238517509307
310.0 -0.05042497307804 -0.0732029117400432 -0.0227779361569654 0.0618139445161631 -0.0138235261046311 -0.0479904286728775 0.0663451778677873 0.011781064125865 -0.0357453322194637 -0.0572136972768914 -0.0615144310642364 -0.0630094697078439
311.0 -0.0501660383157315 -0.0727696281584617 -0.0226035885531207 0.0614678343218562 -0.0137812530762138 -0.0476866350476088 0.065986679054669 0.011760654881178 -0.0355547810598077 -0.0569213209343697 -0.0612008353679624 -0.0626868306609666
312.0 -0.0499009584611443 -0.0723264386613152 -0.0224254795362717 0.061113723379351 -0.0137377539773556 -0.047375997099592 0.0656224058618355 0.0117405412381144 -0.0353589175928821 -0.0566211700157804 -0.0608791348504171 -0.0623560593068932
313.0 -0.0496297553927634 -0.0718734916768781 -0.0222437359423352 0.0607516120516684 -0.0136929929379074 -0.047058633372661 0.0652521032616882 0.0117208708888185 -0.0351577963094555 -0.0563134747823945 -0.0605496714863709 -0.0620172198402286
314.0 -0.049352440373773 -0.0714108150976161 -0.0220583745478928 0.0603815975644141 -0.0136470000110471 -0.04673460489394 0.0648757370031075 0.0117015743080713 -0.0349514452617242 -0.0559983052548278 -0.0602124272491838 -0.0616705879055665
315.0 -0.0490690677218924 -0.0709385688408289 -0.0218695010283561 0.0600038270086724 -0.0135997906683431 -0.0464040401193033 0.0644933379727579 0.0116827127425651 -0.0347400244492185 -0.0556757945188616 -0.0598675869360665 -0.0613162083677876
316.0 -0.0487796654002311 -0.0704568352329659 -0.0216771697861035 0.0596182790691545 -0.0135512273165774 -0.046067005178657 0.0641046309551316 0.0116643177224891 -0.0345235192020005 -0.0553460110879076 -0.0595152942011656 -0.0609542984010597
317.0 -0.0484842478043768 -0.0699657536949303 -0.0214815058665473 0.0592250398113334 -0.0135013361606012 -0.04572363115482 0.0637096198256041 0.0116464054797865 -0.0343019704872523 -0.055009232829909 -0.0591556715179152 -0.0605849212886743
318.0 -0.0481828708646304 -0.0694654930402152 -0.0212826221632264 0.0588242020616256 -0.0134501306908395 -0.0453740340494266 0.0633080639824432 0.0116289358514055 -0.0340755934725816 -0.0546653601962609 -0.0587887334170628 -0.0602082066479948
319.0 -0.0478755633742684 -0.0689560916557273 -0.0210805282750967 0.0584158136076641 -0.0133975208135292 -0.0450183221002203 0.0628997910429775 0.0116117426030697 -0.0338443048502095 -0.0543146815742247 -0.0584147784952906 -0.0598243667649497
320.0 -0.0475622916368941 -0.068437763380732 -0.0208754717405626 0.0580000446089087 -0.0133434116284647 -0.0446565995480442 0.0624848093022247 0.0115948857143901 -0.0336083043295588 -0.0539572969080482 -0.0580339119527214 -0.0594335109256933
321.0 -0.0472431838634667 -0.0679106668204116 -0.0206674829552587 0.0575769341451778 -0.0132878513191327 -0.0442890656148318 0.0620627833949924 0.0115782019858139 -0.0333677432416783 -0.0535934032077499 -0.0576462849857717 -0.0590357924301574
322.0 -0.0469182090190886 -0.0673748836257288 -0.0204566746057722 0.0571465508543723 -0.0132307676519805 -0.043915774341949 0.0616337832699339 0.0115618014786075 -0.0331225539346802 -0.0532229563372677 -0.0572519269119643 -0.0586312416787679
323.0 -0.0465873511267958 -0.0668306499085622 -0.0202432502619595 0.0567090271104429 -0.0131720749213529 -0.0435369476276773 0.0611975053015432 0.0115453526981343 -0.03287294417774 -0.0528461276525149 -0.0568510469015877 -0.0582200683992988
324.0 -0.0462506990002651 -0.0662781357401779 -0.0200274117616057 0.0562644310603465 -0.0131116804860701 -0.043152748226032 0.0607537446621065 0.0115288305469144 -0.0326189724123988 -0.0524631509266922 -0.0564437526368451 -0.0578024290803103
325.0 -0.0459082983613457 -0.0657174771937119 -0.0198091174540138 0.0558128948252927 -0.0130496336925798 -0.0427633084431817 0.0603025899824463 0.0115121250658844 -0.0323607657634561 -0.0520740979883794 -0.0560300995532237 -0.0573784042831147
326.0 -0.0455601727479381 -0.0651488898785657 -0.019588685532659 0.0553545349414859 -0.0129857658673091 -0.0423687934299089 0.0598437472547569 0.0114951311280546 -0.0320984381949323 -0.0516791028541091 -0.0556103102667073 -0.0569481325199113
327.0 -0.0452063827968643 -0.0645725818305592 -0.0193662312862186 0.0548895084412298 -0.0129200872147432 -0.0419693852456133 0.0593771621606585 0.011477649055298 -0.0318320968955944 -0.05127828303581 -0.0551844993814291 -0.0565117821363866
328.0 -0.0448469112049881 -0.0639887571865837 -0.0191418625854012 0.0544178476463994 -0.0128525544688564 -0.0415653231737193 0.0589026611786212 0.0114595275326768 -0.0315618940856256 -0.0508718445874552 -0.0547527744156902 -0.0560694397979776
329.0 -0.0444818461032644 -0.0633976180763375 -0.0189157805208185 0.0539397632739429 -0.0127830483173016 -0.0411567303988648 0.0584202034980114 0.0114405916235725 -0.0312879566483107 -0.0504598935869485 -0.0543152877593202 -0.0556211986399656
330.0 -0.0441112328620729 -0.0627994141155629 -0.018688185653924 0.0534553152829337 -0.0127115073373191 -0.0407438158953701 0.0579295740318132 0.0114207027501346 -0.0310104469426965 -0.0500425816825941 -0.0538722149022987 -0.05516730068643
331.0 -0.0437350948383753 -0.0621942738080414 -0.0184591812350376 0.0529646800987666 -0.012637948427439 -0.0403267357639126 0.0574309046486549 0.0113998380909586 -0.0307294485522595 -0.0496199384245489 -0.0534235006299102 -0.0547076764554751
332.0 -0.0433535410952051 -0.0615825544245024 -0.018228965976165 0.0524680455850841 -0.0125622832484129 -0.0399057644435601 0.0569240206385498 0.011377549223199 -0.0304450530256682 -0.0491921731028635 -0.052969456152786 -0.0542426298128972
333.0 -0.0429666277789098 -0.0609643913708437 -0.0179977392142384 0.0519655084552914 -0.0124844178032702 -0.0394810432173011 0.0564088805790388 0.0113538478927057 -0.0301574530508433 -0.0487593449420349 -0.0525100961260705 -0.0537721716326722
334.0 -0.0425743837939885 -0.0603400969516884 -0.0177656520885461 0.0514572640561488 -0.0124043522211288 -0.0390528874153225 0.0558855601842951 0.011328497549517 -0.0298667963441194 -0.0483218240667338 -0.0520456221717664 -0.0532965015902329
335.0 -0.0421769210593825 -0.059709928982175 -0.0175329279646413 0.0509434614727785 -0.0123219895297396 -0.0386214593716223 0.0553538558356591 0.0113013278968388 -0.0295732559895311 -0.0478795584227087 -0.0515760895668104 -0.05281572247977
336.0 -0.0417743457110389 -0.0590741172259068 -0.0172997303519 0.0504242744938756 -0.0122373283265281 -0.0381869396955018 0.0548140023444625 0.0112722027454317 -0.0292768240531269 -0.0474328123282584 -0.0511016723262038 -0.0523299842591106
337.0 -0.0413667123884225 -0.0584329255247374 -0.0170661919453556 0.0498998411063326 -0.0121502708507199 -0.0377495669238652 0.054266023554361 0.0112409064261233 -0.0289778360859781 -0.0469815762980543 -0.0506224600339826 -0.0518393156081439
338.0 -0.0409540977396395 -0.0577866352642216 -0.0168324780959805 0.049370377904765 -0.0120608152938027 -0.0373095608957573 0.0537098832208615 0.0112073279110439 -0.0286762707544835 -0.0465260880457889 -0.0501385958473022 -0.0513439253689005
339.0 -0.0405367353010659 -0.0571354883421638 -0.0165987709662336 0.0488360934321869 -0.0119689607247429 -0.0368671318244455 0.0531457082431469 0.0111711189261749 -0.0283724567114889 -0.0460664699479922 -0.0496502505031022 -0.0508439695739542
340.0 -0.040114551221282 -0.0564798518859021 -0.0163653098925946 0.0482971920865969 -0.0118746096255183 -0.0364225820065053 0.0525735154303687 0.0111322457359032 -0.0280664661108624 -0.0456029305629654 -0.049157560417212 -0.0503395285498727
341.0 -0.039687798597265 -0.0558199148949394 -0.0161321210482947 0.0477538761321125 -0.0117778088319471 -0.0359760185467881 0.0519936530715061 0.0110905454148391 -0.0277583360978771 -0.0451354802191362 -0.0486605472980133 -0.0498306921686471
342.0 -0.0392565592055981 -0.0551560172642297 -0.0158994605042813 0.0472062982149561 -0.0116785339360483 -0.0355277391803572 0.0514061549098742 0.0110459340879493 -0.0274482313532376 -0.0446644153498058 -0.0481594649179203 -0.0493176522550335
343.0 -0.0388210207034701 -0.0544884795319505 -0.0156674600875166 0.0466547309958199 -0.0115767723724368 -0.0350779942218486 0.0508111838748277 0.0109982715371098 -0.0271363822137044 -0.0441897915220145 -0.0476543954012358 -0.0488005075616443
344.0 -0.0383812311786424 -0.0538175152325671 -0.0154362847020845 0.0460993633615332 -0.0114724691530122 -0.0346269125348389 0.0502091149596015 0.0109472914996928 -0.0268229557774761 -0.0437118314194705 -0.0471455265841566 -0.0482794544850362
345.0 -0.0379374094644427 -0.0531434768917888 -0.015206067761023 0.0455404381103247 -0.0113656444889084 -0.0341748030559221 0.0495999956550324 0.0108930509794339 -0.0265080380677745 -0.0432306011618118 -0.0466329551659587 -0.0477545941314134
346.0 -0.0374897167370285 -0.052466643030827 -0.0149769264655775 0.0449781772749965 -0.0112563573043065 -0.0337217763082738 0.0489840930065075 0.0108352396867004 -0.0261918189279851 -0.0427463288652913 -0.0461168279667686 -0.0472260755896172
347.0 -0.0370383330096371 -0.0517873511116238 -0.0147490181904196 0.044412840717536 -0.0111446379337522 -0.0332681803060925 0.0483616900487811 0.0107738919598442 -0.0258743960906973 -0.042259180484976 -0.0455972690898868 -0.0466940726502572
348.0 -0.0365833994735954 -0.0511058233811067 -0.0145224239530371 0.0438446107359174 -0.0110305019936636 -0.0328141456899546 0.0477331750867564 0.0107089769571083 -0.0255558683886339 -0.0417691929362362 -0.0450744394632068 -0.0461586262624911
349.0 -0.036125134373182 -0.0504224653695765 -0.0142973310198315 0.0432737752557448 -0.0109139090041127 -0.0323598852725449 0.0470987480222822 0.0106403817622388 -0.0252363837402331 -0.0412766278201411 -0.0445485674915181 -0.0456200001040079
350.0 -0.0356636985813082 -0.0497375343659874 -0.0140737872773846 0.0427006280610417 -0.0107949351644935 -0.0319056541692758 0.0464588028822703 0.0105680482452257 -0.0249160668142135 -0.0407816683299554 -0.0440197222397082 -0.0450783299177693
351.0 -0.0351993204744585 -0.0490512598630594 -0.0138519144167352 0.0421253203937035 -0.0106736682221018 -0.031451583715194 0.045813542514296 0.0104918494416476 -0.0245952243876296 -0.040284457294104 -0.0434881818596232 -0.0445338311432006
352.0 -0.0347322146610287 -0.048364051121274 -0.013631823604569 0.0415481241914662 -0.0105502018691672 -0.0309979355998623 0.0451637020972703 0.0104120111055683 -0.0242737717944718 -0.039785019722214 -0.0429538954681732 -0.0439865176511766
353.0 -0.0342625886615145 -0.0476761673499061 -0.0134135720702072 0.0409693735270567 -0.0104244873003287 -0.0305448445427424 0.0445093204704806 0.0103282613017441 -0.0239519565642971 -0.0392837081249221 -0.0424171765059386 -0.0434366391793129
354.0 -0.033790694866875 -0.0469879360689892 -0.0131972863143906 0.0403892889026126 -0.0102966934677146 -0.0300925739757155 0.0438509028222414 0.0102406055942513 -0.0236298576075453 -0.0387806554575996 -0.0418781863341358 -0.042884421332852
355.0 -0.0333166632095915 -0.046299671446013 -0.01298298294115 0.0398081779114857 -0.0101668588296016 -0.0296413080345597 0.0431889518235301 0.0101492409249524 -0.023307661105896 -0.0382759301665226 -0.0413371050612718 -0.0423299802548168
356.0 -0.0328408516958969 -0.0456116322551315 -0.012770767537067 0.0392262474240622 -0.0100350614077886 -0.0291911900329123 0.042523920330023 0.0100541522343145 -0.0229854143875093 -0.0377698100850724 -0.0407941224470786 -0.0417735698138186
357.0 -0.0323634931490511 -0.0449241457923757 -0.0125606459394293 0.0386437980159808 -0.00990141414743733 -0.0287423907882707 0.0418560899940802 0.00995529780604131 -0.022663335894665 -0.0372624867630117 -0.0402493847004409 -0.0412152721836834
358.0 -0.0318847074279583 -0.0442374775905567 -0.0123527667113903 0.0380610814642238 -0.00976597519343959 -0.0282950952772961 0.0411858484089394 0.00985265616431681 -0.0223414410441267 -0.0367540102920241 -0.0397031611680682 -0.0406553722648228
359.0 -0.0314048473529096 -0.0435519584251054 -0.0121471092954917 0.0374784214626335 -0.00962888122174999 -0.0278494957658775 0.0405138317843203 0.00974649281360575 -0.022019883330623 -0.0362446975757891 -0.0391555905113703 -0.040094065245152
360.0 -0.030924191596769 -0.0428679041394104 -0.0119437116279828 0.0368960331702312 -0.00949022685370465 -0.0274057882724448 0.0398404646837782 0.00963679887922547 -0.0216987902935825 -0.0357346632389889 -0.0386068411528484 -0.0395315486473788
361.0 -0.0304429321414702 -0.0421855743703895 -0.0117426417580472 0.0363142214296982 -0.00935014328388502 -0.0269640737085404 0.0391661597527884 0.00952364257147262 -0.0213783246298395 -0.0352241603685838 -0.0380571938749242 -0.0389680211961776
362.0 -0.0299614104173414 -0.0415052968582298 -0.0115438861984804 0.0357333372534379 -0.00920875142339725 -0.0265245495821522 0.0384915175787629 0.00940716574803658 -0.0210586186161254 -0.0347133192553604 -0.0375067932261853 -0.0384036822350025
363.0 -0.0294798021949008 -0.040827288845037 -0.011347486525343 0.0351535128255218 -0.00906614262966859 -0.0260873660910163 0.0378168958673046 0.00928753847688377 -0.0207396433106279 -0.0342023040125697 -0.0369558591792496 -0.0378387314258593
364.0 -0.0289984405587361 -0.0401518562458776 -0.0111534641422572 0.0345751558306763 -0.00892248523248738 -0.0256526490772486 0.0371427213643476 0.00916478038298752 -0.0204216264107171 -0.0336913932042036 -0.0364046505355088 -0.0372734656334668
365.0 -0.0285175455022847 -0.0394793021058655 -0.0109617815485845 0.0339984276282472 -0.00877786103716983 -0.0252205603638956 0.0364696019163099 0.00903907623910593 -0.0201046851364563 -0.033180778756148 -0.0358533975662957 -0.0367080862050419
366.0 -0.0280374243570162 -0.0388098794732851 -0.0107724679581165 0.0334236538838589 -0.00863245286376045 -0.0247911832584974 0.0357978989657775 0.00891059879841341 -0.0197888313141242 -0.032670559473077 -0.0353022673361259 -0.0361427938341406
367.0 -0.027558332377858 -0.0381439126964525 -0.0105855384102997 0.0328510992909789 -0.00848637423693208 -0.0243647547257489 0.0351280897018672 0.00877946125502967 -0.0194743136287649 -0.0321610288170696 -0.0347515884476817 -0.0355778859165299
368.0 -0.0270805465297605 -0.0374815687519567 -0.0104010491668979 0.0322810456735782 -0.00833974667508088 -0.0239412997178715 0.0344606623813901 0.00864582377266805 -0.0191611145469506 -0.031652434903002 -0.0342014330290064 -0.035013515553454
369.0 -0.0266043549541326 -0.0368232247165744 -0.0102188836337466 0.031713783674521 -0.00819272492343895 -0.0235210251578684 0.0337961594782376 0.0085098998069053 -0.0188493706004405 -0.0311449054620004 -0.0336521778475989 -0.0344500041592134
370.0 -0.0261300030267358 -0.0361690261924834 -0.0100390497145281 0.0311495114379736 -0.00804546142488214 -0.0231040375710261 0.0331349087808005 0.00837184291346236 -0.0185392005960179 -0.0306386518089461 -0.0331039683464186 -0.0338875657193068
371.0 -0.0256577141073024 -0.0355193392527769 -0.00986161455327659 0.0305885250472611 -0.0078980395099145 -0.0226904888359638 0.0324773216334404 0.00823175155155106 -0.0182308112542556 -0.0301339282881725 -0.0325571705165921 -0.0333265044722788
372.0 -0.0251877972602922 -0.0348743038348659 -0.0096864914177704 0.0300310739666942 -0.00775065733956495 -0.0222804086214065 0.0318239009150273 0.00808993841314807 -0.0179241634381469 -0.02963091435713 -0.0320118757339733 -0.0327669770420788
373.0 -0.0247205571521472 -0.0342342345762254 -0.00951367447319488 0.0294773836608166 -0.00760343633614333 -0.021873957759084 0.031175148107622 0.00794654506633998 -0.0176194310771507 -0.0291297994403827 -0.031468373636237 -0.0322092581371588
374.0 -0.0242561506271013 -0.0335992934542409 -0.00934314130800606 0.0289277157582983 -0.00745651178767186 -0.0214712190461998 0.0305312243386783 0.0078017074664518 -0.0173166066725453 -0.0286308266129887 -0.0309269588887917 -0.0316536347372678
375.0 -0.0237949010263701 -0.0329698064527075 -0.00917487553266167 0.0283823505053331 -0.00731002126839423 -0.0210723321460046 0.0298927947899615 0.00765565571804308 -0.0170159289607412 -0.0281341695309033 -0.0303878802259957 -0.0311003516201374
376.0 -0.0233370233274409 -0.032345941390169 -0.0090088832655285 0.0278414806938151 -0.00716407441789951 -0.0206774174773932 0.0292601048625807 0.00750867324623782 -0.01671737528669 -0.0276401116707639 -0.0298513627366084 -0.0305496803569902
377.0 -0.0228827737601798 -0.0317278816994056 -0.00884506576572478 0.0273053026129652 -0.00701885868162199 -0.0202864885134237 0.0286334264486777 0.00736078466170342 -0.016421128064868 -0.0271487504487975 -0.0293175708171235 -0.0300018092737897
378.0 -0.0224323327527217 -0.0311158673708668 -0.00868349835114888 0.0267741113911708 -0.00687443174218267 -0.0198996977481924 0.0280133361943075 0.00721228889839335 -0.0161272326840551 -0.0266603786123014 -0.0287868316967086 -0.0294570779187475
379.0 -0.0219859872680653 -0.0305101189918918 -0.00852411305334471 0.0262480589624141 -0.00673094944530018 -0.0195171236866361 0.0273999854024692 0.00706329618199576 -0.0158358095494055 -0.0261751953888178 -0.028259362354393 -0.0289156610934556
380.0 -0.021543933555959 -0.0299107986416146 -0.00836689428946016 0.0257273691013619 -0.0065885162810278 -0.0191388552629588 0.0267937430810755 0.00691406218677657 -0.0155469206462632 -0.0256933518613204 -0.0277353715310899 -0.0283777943449724
381.0 -0.021106369685749 -0.0293181353174907 -0.00821180007379119 0.0252122540473647 -0.00644727822829775 -0.0187649867804178 0.0261948962364811 0.00676474279516405 -0.0152606464044402 -0.025215119885731 -0.0272151607653973 -0.0278437930118713
382.0 -0.0206734461441624 -0.0287322954282356 -0.0080588281995727 0.0247028715819584 -0.00630731528993451 -0.0183955667869334 0.0256037866988347 0.00661558322225403 -0.0149770767490782 -0.024740639415218 -0.0266988852913152 -0.0273138194324678
383.0 -0.0202454344801696 -0.0281534131614813 -0.00790796297493988 0.0241993999708074 -0.00616873657900818 -0.0180306687946458 0.025020638963844 0.00646661751956295 -0.0146963064935758 -0.0242700795372883 -0.0261867705823803 -0.0267881512570058
384.0 -0.0198225230082784 -0.0275817031559594 -0.00775917206194028 0.0237020765442969 -0.00603167104666561 -0.0176704276867954 0.0244456656420564 0.00631807185027766 -0.0144184329678375 -0.0238037213767125 -0.0256791267912526 -0.0262670769796879
385.0 -0.0194048086740024 -0.0270172273897025 -0.00761244366472504 0.0232110234816279 -0.00589617537391038 -0.0173148158634171 0.0238791702641824 0.00617022761047826 -0.0141435062779209 -0.0233416126196016 -0.025176065067146 -0.0257506965998156
386.0 -0.0189925354629528 -0.0264602118468386 -0.00746772804329163 0.022726352200795 -0.005762390335014 -0.0169639646739528 0.0233213090897742 0.00602313747788341 -0.0138716492574651 -0.0228840689312311 -0.0246778852271875 -0.0252392556751096
387.0 -0.0185857804611234 -0.0259108699041633 -0.00732509662988855 0.022248314137935 -0.00563033503017624 -0.0166179902572956 0.0227722596009692 0.00587694501778395 -0.0136029251420138 -0.0224312528181048 -0.0241847416191527 -0.0247330746976962
388.0 -0.0181847289109573 -0.0253691173319758 -0.00718441152859824 0.0217769416952601 -0.00550015999844636 -0.0162767583250506 0.0222323072441481 0.00573186969659052 -0.0133373179662694 -0.0219832479396107 -0.0236968107409844 -0.0242322216202528
389.0 -0.0177895246958098 -0.024835250403808 -0.0070457570116721 0.0213123971117167 -0.00537187966312219 -0.0159404908608532 0.0217015019302138 0.00558801964507975 -0.0130749650692746 -0.0215402429222176 -0.0232143290130331 -0.0237369740220528
390.0 -0.017400241887753 -0.0243093731238097 -0.00690912309170835 0.0208548124283126 -0.00524556937651383 -0.0156092536239395 0.0211799663923391 0.00544547964128346 -0.0128159371540477 -0.0211024804301186 -0.0227374666653683 -0.0232475233220427
391.0 -0.0170170641776436 -0.0237914419952627 -0.0067743881806645 0.0204042556206038 -0.00512134070951284 -0.0152829349095047 0.0206679578917866 0.00530446799917117 -0.0125602220995947 -0.0206699398303131 -0.0222663113335192 -0.0227639195445609
392.0 -0.0166400376113503 -0.0232816772225786 -0.00664164009425439 0.0199608587215614 -0.00499920258016809 -0.0149616712886407 0.0201654147908606 0.00516509225623547 -0.0123080077433907 -0.0202429016169609 -0.0218011507296173 -0.0222864795586175
393.0 -0.016269282932301 -0.0227801436490375 -0.00651089978088944 0.0195247382219641 -0.00487918869116427 -0.0146455330690197 0.0196724994355212 0.00502735925410565 -0.0120592937466498 -0.0198214616708902 -0.0213421329697091 -0.0218153664904065
394.0 -0.015904862299985 -0.0222869231757349 -0.00638206157848174 0.0190959055726501 -0.00476139887577123 -0.0143345079261211 0.0191892954025073 0.0048914665923365 -0.0118140799349627 -0.0194057663908852 -0.0208893343048831 -0.0213506643183365
395.0 -0.0155468562338654 -0.0218019609271589 -0.00625513416668035 0.0186744151879443 -0.00464585056524311 -0.0140285409958429 0.0187158942370193 0.00475758877548344 -0.0115723662185425 -0.0189958426246166 -0.0204428910284079 -0.0208925133137499
396.0 -0.0151952576665169 -0.021325471249845 -0.0061302287564163 0.0182603921194094 -0.00453251876974906 -0.0137278466305945 0.0182521975090317 0.00462564096991207 -0.0113343466286067 -0.0185919467902376 -0.0200030188630103 -0.0204411797666715
397.0 -0.0148502570370241 -0.0208574674520415 -0.00600722793009232 0.0178538522250301 -0.00442150707082837 -0.0134323411029277 0.0177983001042179 0.00449572991274074 -0.0111000240149473 -0.0181940653353741 -0.0195697803447708 -0.01999660668747
398.0 -0.0145117583072059 -0.0203978593461993 -0.00588609064812198 0.0174548036685985 -0.00431283482936831 -0.0131419813094164 0.0173542993896899 0.00436807066680923 -0.0108693028059356 -0.0178022883218974 -0.0191432561870237 -0.0195589588149588
399.0 -0.0141798575940726 -0.0199468430999915 -0.00576694134114374 0.017063347691607 -0.00420646834505344 -0.0128568906182213 0.0169200514132195 0.00424261868589151 -0.0106424249168459 -0.0174168076723152 -0.0187235849802302 -0.0191284179964532
400.0 -0.013854604379276 -0.0195043256243513 -0.00564968395295834 0.0166794393751038 -0.00410246789972186 -0.0125769869819806 0.0164955791059987 0.00411942866828145 -0.0104192722904091 -0.0170376251508427 -0.0183108380716466 -0.018704980809395
401.0 -0.0135359756169272 -0.0190703560351514 -0.00553436607193984 0.0163031526332451 -0.00400080145168148 -0.0123023252009078 0.016080894273152 0.00399862581173092 -0.0101999103003237 -0.0166647901850691 -0.017905100710657 -0.0182887425305492
402.0 -0.0132239594428549 -0.0186448625788375 -0.00542092486203963 0.0159343799594312 -0.00390150587696024 -0.0120328849671432 0.0156758574339526 0.00388019208593164 -0.00998432893396418 -0.0162983767399938 -0.01750641678419 -0.0178798007283643
403.0 -0.0129185497493079 -0.0182279538743006 -0.00530944927325792 0.0155732600860172 -0.00380453708440522 -0.0117687043454308 0.0152804453021901 0.00376415217231757 -0.0097726297793588 -0.0159385199319918 -0.0171149544435975 -0.017478254151062
404.0 -0.0126196948726168 -0.0178195888005209 -0.00519987350309591 0.0152196703558666 -0.00370991604303281 -0.0115097058930243 0.0148946458899741 0.00365060125996098 -0.00956474868821055 -0.0155851437617577 -0.0167306061768311 -0.0170841051154987
405.0 -0.0123274652547139 -0.017419649149414 -0.0050921588240701 0.014873596143661 -0.00361766325169884 -0.0112558982612624 0.0145182589484219 0.00353945735053323 -0.0093607448233497 -0.0152383546624426 -0.0163534621940807 -0.0166973548144069
406.0 -0.0120418001208369 -0.017028219624782 -0.00498639689355231 0.0145350299201928 -0.00352770192849736 -0.0110072859039095 0.0141514239849273 0.00343090141982631 -0.00916056615926779 -0.0148981589071539 -0.0159836174554891 -0.0163181009005331
407.0 -0.011762619664389 -0.0166451497552438 -0.00488250874700794 0.0142038707706576 -0.0034400507688439 -0.0107638225944322 0.013793776144549 0.00332477918659974 -0.00896425869194022 -0.0145645597253273 -0.0156210238084257 -0.0159462966074159
408.0 -0.0114898828004234 -0.0162704591158897 -0.00478055077170938 0.0138801637821884 -0.00335467572983396 -0.010525484535115 0.0134452731557085 0.00322120045138785 -0.00877181698877344 -0.0142376072988573 -0.0152657535023281 -0.0155820148981019
409.0 -0.0112236168975067 -0.0159040607453814 -0.00468045010552916 0.0135638351272098 -0.0032715883975785 -0.0102922594747419 0.0131059417760867 0.00312010529374424 -0.00858326251271356 -0.0139172304229839 -0.0149177466929489 -0.0152252448150743
410.0 -0.0109636904870721 -0.0155459583948254 -0.00458227598116993 0.0132547982794532 -0.00319070254989745 -0.0100641168466283 0.0127755531839087 0.00302157446076777 -0.00839849957043042 -0.0136034894797613 -0.0145769725720867 -0.0148759321979733
411.0 -0.0107100358882598 -0.0151960084372352 -0.00448598155715795 0.0129530086946422 -0.0031120174664848 -0.00984098754355345 0.0124538440221802 0.00292548455575747 -0.00821760990065749 -0.0132963185155372 -0.0142434637988424 -0.0145340976840591
412.0 -0.0104625697391702 -0.014854136932519 -0.00439157668275484 0.0126583464023778 -0.00303549881297038 -0.00962286024835775 0.0121409213098357 0.00283190790751018 -0.00804052884042566 -0.0129957806156694 -0.0139172371863299 -0.0141997033781652
413.0 -0.0102213219036039 -0.0145203543352044 -0.00429904702067946 0.0123708466798511 -0.0029611386176727 -0.00940970487521505 0.0118365005053869 0.00274076045295322 -0.00786726676824871 -0.0127018112181838 -0.0135982043513279 -0.0138727782909777
414.0 -0.0099861379378765 -0.014194471949909 -0.00420836093032772 0.0120903336105456 -0.00288888910929506 -0.00920142830477342 0.0115404351250549 0.0026520474352389 -0.0076977999154359 -0.012414377086163 -0.0132863197935884 -0.0135531917993029
415.0 -0.00975691407371072 -0.0138763926350422 -0.0041194730112981 0.0118166681121528 -0.00281872084293223 -0.0089979292272985 0.0112527467967728 0.00256588800003971 -0.00753198504344096 -0.0121333155509488 -0.0129815115699326 -0.0132408766574851
416.0 -0.00953360174246947 -0.0135661149008518 -0.00403249574538157 0.0115498756229303 -0.00275055558499045 -0.00879930104597092 0.0109729614611387 0.00248197473717383 -0.00736999586087998 -0.0118587369471156 -0.0126838396822716 -0.0129358952857503
417.0 -0.00931610316166744 -0.0132634924223234 -0.00394738029633176 0.0112898236805758 -0.00268436276418705 -0.00860543658339358 0.0107010776661388 0.00240043080220081 -0.00721172771661986 -0.0115906010368879 -0.0123931409425331 -0.0126381342603502
418.0 -0.00910436799225545 -0.0129684013510433 -0.00386403844776845 0.0110363955732883 -0.00262016545771811 -0.00841622729266052 0.0104371431836273 0.00232123226154269 -0.00705708792009955 -0.0113287415475214 -0.0121093798598132 -0.0123474381512933
419.0 -0.00889821505741665 -0.0126807294096956 -0.00378251212018269 0.0107894826977256 -0.0025578542474717 -0.00823162214506593 0.01018074593262 0.00224441046146446 -0.00690602390168905 -0.0110731214001032 -0.0118324896438074 -0.0120638239809453
420.0 -0.00869758019778233 -0.0124003702778393 -0.00370277437515147 0.0105489806248322 -0.00249740191591962 -0.00805156575908945 0.00993166406731689 0.00216974864629559 -0.00675857652531051 -0.0108237215061718 -0.0115623388717194 -0.0117871549544489
421.0 -0.00850236245659483 -0.0121271721823109 -0.00362480164073022 0.010314787074502 -0.00243877989549617 -0.00787598595654597 0.00968989497460885 0.00209735841788612 -0.00661463097376437 -0.0105803864807849 -0.0112989084056126 -0.011517360648936
422.0 -0.00831250986066924 -0.0118611055086747 -0.00354858663386705 0.0100868154287297 -0.00238195892362769 -0.00770484072770786 0.00945535967827437 0.00202719048699048 -0.00647420091746166 -0.0103431333694997 -0.0110420913544348 -0.0112544048102638
423.0 -0.00812785494773318 -0.0116020094531496 -0.00347416927262428 0.00986494346503586 -0.00232684145284189 -0.0075380938898905 0.00922765847758475 0.00195907877304543 -0.00633726913433741 -0.0101118350932703 -0.0107918326899883 -0.010998171735847
424.0 -0.00794832606294521 -0.0113497527135598 -0.00340144880867569 0.00964905489120982 -0.00227344034024387 -0.00737561036955214 0.00900662441953509 0.00189300570381832 -0.00620375883125828 -0.00988642623099042 -0.0105480070446845 -0.0107485533418946
425.0 -0.00777377957534226 -0.0111041706559848 -0.00333039763581825 0.00943897824474919 -0.00222168942571353 -0.00721728666641707 0.00879235592921833 0.00182912719883554 -0.00607351888009963 -0.0096667518050558 -0.0103104528397665 -0.0105053969474589
426.0 -0.00760410272729734 -0.010865130006469 -0.00326104520962604 0.00923462525566048 -0.00217152553798161 -0.00706309860949705 0.00858451552162165 0.00176724211417867 -0.00594655396204792 -0.00945276599555604 -0.0100791402647522 -0.0102686239514112
427.0 -0.00743923261852651 -0.0106326106740869 -0.00319338728627306 0.00903592622230615 -0.00212292100801045 -0.0069130046437966 0.00838281301083659 0.00170717412063124 -0.00582291500636793 -0.00924443065830005 -0.00985397634203874 -0.0100381550738992
428.0 -0.007279088348201 -0.0104064567578215 -0.00312736830971446 0.00884277248279705 -0.00207586159160241 -0.00676691544943407 0.00818726397312472 0.00164911385507259 -0.00570246326594688 -0.00904160485801398 -0.0096348307232489 -0.00981387187017157
429.0 -0.00712354093320833 -0.0101865055159194 -0.00306296453127883 0.00865502561438517 -0.0020302914363933 -0.00662473652460269 0.00799774057303698 0.00159283923081171 -0.00558518553611529 -0.00884421118838096 -0.00942161689645998 -0.00959566484475233
430.0 -0.0069723832660726 -0.00997250820206038 -0.00300012490951011 0.00847244453839378 -0.00198613326986857 -0.00648631732851148 0.0078140023303699 0.0015384639571912 -0.00547088579352056 -0.00865202542656546 -0.00921409624734027 -0.0093833223667175
431.0 -0.00682553783815591 -0.00976437557553488 -0.0029388377237481 0.00829495851727343 -0.00194335216357924 -0.00635160947341391 0.00763582840565568 0.00148588645862004 -0.00535960383023053 -0.00846504858768103 -0.00901224782636098 -0.00917680341421721
432.0 -0.0066829987110675 -0.00956211506595071 -0.00287911634786595 0.00812255539456104 -0.00190194469194428 -0.00622061716060444 0.00746307114577102 0.00143492829299782 -0.00525136498339238 -0.00828322297108254 -0.00881600262533855 -0.00897601894183654
433.0 -0.00654462697347762 -0.0093655946439093 -0.00282097251875516 0.00795510761363144 -0.00186183146047654 -0.00609328432970429 0.00729562542632715 0.00138561889558947 -0.00514606585026747 -0.00810644124113253 -0.00862524263550636 -0.008780874589066
434.0 -0.00641031229745674 -0.00917461048562319 -0.00276430068411441 0.00779246217266959 -0.00182301041187401 -0.00596945597013553 0.00713339831312791 0.00133795886404975 -0.00504361438297618 -0.00793455110203783 -0.00843982947422006 -0.0085912053320473
435.0 -0.00627990569869656 -0.00898899943807018 -0.0027090950243036 0.0076344529705139 -0.00178540770798438 -0.00584904742952467 0.0069763177033744 0.00129198732154319 -0.00494390982338496 -0.00776742077965345 -0.00825959486248867 -0.00840686314027404
436.0 -0.00615325770008168 -0.00880853195095016 -0.00265527006042264 0.00748089260656729 -0.0017489950403263 -0.00573189868182396 0.0068239583232038 0.00124752062761298 -0.00484686633700982 -0.00760488539708613 -0.00808436968629862 -0.00822765050829411
437.0 -0.00603033986919662 -0.00863315777740377 -0.00260281089900281 0.00733174768097123 -0.00171376753938446 -0.00561798071589603 0.00667627105667027 0.00120452731814487 -0.00475247369926119 -0.0074468988901442 -0.00791409599628958 -0.00805351427839687
438.0 -0.00591110360529986 -0.00846294808874637 -0.00255183602312726 0.00718702525894486 -0.00167963536345308 -0.00550739019114986 0.00653320635889058 0.00116299119521148 -0.00466077031387895 -0.00729348121211105 -0.00774877307137602 -0.0078844561962688
439.0 -0.00579542199776254 -0.00829768237181825 -0.00250225116669321 0.00704655430801195 -0.00164658622499914 -0.00539996338328347 0.0063946174254416 0.00112282143710403 -0.00457167406069805 -0.00714450678085647 -0.00758826468613033 -0.00772032675058422
440.0 -0.00568313267346064 -0.00813710639888942 -0.00245396413348364 0.00691012062922307 -0.001614584686706 -0.00529553352306634 0.00626028797432266 0.0010839276208016 -0.00448506988469188 -0.00699975083200797 -0.0074323405969424 -0.00756089856193972
441.0 -0.00557413263392681 -0.00798113781125768 -0.00240700023933613 0.00677763821126838 -0.00158356398585617 -0.00519406812792748 0.00613011636604779 0.00104647182920264 -0.00440085003543641 -0.00685911706317228 -0.00728090168067237 -0.00740606427783536
442.0 -0.00546837370682693 -0.00782957894818389 -0.00236120755118166 0.00664898029206301 -0.0015535819393596 -0.00509539521367925 0.00600408909144721 0.00101039679747629 -0.00431888141134772 -0.0067224248949889 -0.00713376590582133 -0.00725565218605302
443.0 -0.00536573405401502 -0.00768240568363072 -0.00231667281872824 0.00652407190980249 -0.00152452760558733 -0.00499954268822544 0.00588188382007346 0.000975459074943313 -0.00423926530863885 -0.00658971236631961 -0.0069909366001289 -0.00710964666708405
444.0 -0.00526618491598586 -0.00753958133767975 -0.00227339703385664 0.00640288417754218 -0.00149639239043887 -0.00490649095518145 0.00576348017222967 0.000941680345297083 -0.00416196654040041 -0.00646091172496579 -0.00685233299382461 -0.00696796204892937
445.0 -0.00516960474456999 -0.00740092691338604 -0.00223132248396135 0.00628526636988992 -0.00146914275800027 -0.00481612318361096 0.00564881913695742 0.000909136302190608 -0.00408686995346614 -0.00633587164519783 -0.00671781161545761 -0.00683046204031146
446.0 -0.00507586789082386 -0.00726629689068078 -0.00219042916209574 0.00617108266921723 -0.00144272262828036 -0.00472835982045626 0.00553753069951721 0.000877570915491646 -0.00401395022980117 -0.00621448996388174 -0.00658724038177482 -0.00669700369856838
447.0 -0.00498490481793125 -0.00713560665102931 -0.00215070191661964 0.0060602583038038 -0.0014171031309408 -0.00464315505935817 0.00542977856528179 0.000847174062606931 -0.00394305362937495 -0.0060966073441902 -0.0064604833683682 -0.00656746491654298
448.0 -0.00489665546821415 -0.00700863311063624 -0.00211197283348353 0.00595264803809739 -0.00139234218238678 -0.00456030094534159 0.00532540926596033 0.000817896479979539 -0.00387414467325999 -0.00598214661044087 -0.0063374269330586 -0.00644171005364923
449.0 -0.0048110258484275 -0.00688528083228014 -0.00207424765624429 0.00584815769616226 -0.0013683919673782 -0.00447976320089466 0.00522431953541457 0.000789673020539858 -0.00380719054086934 -0.00587100495693053 -0.00621796405276491 -0.00631963046575739
450.0 -0.00472787053152712 -0.00676554920362875 -0.00203767489980195 0.005746714535944 -0.0013451017199873 -0.00440161151458306 0.00512620876283938 0.000762352244114595 -0.00374213066853076 -0.00576310519894521 -0.00610202022357606 -0.00620116537023821
451.0 -0.00464715831816409 -0.00664932146298534 -0.00200216120281724 0.00564824229387944 -0.00132250056754181 -0.00432574105638215 0.00503101437865268 0.000735963901312765 -0.00367895813735823 -0.00565838819355624 -0.00598951342297779 -0.00608621069676508
452.0 -0.00456891196220198 -0.00653649383325719 -0.00196758087129911 0.00555270656093424 -0.00130066658014454 -0.00425203963589233 0.00493881576616137 0.0007104684810614 -0.00361764512578494 -0.0055567943819894 -0.00588037231363884 -0.00597469831345988
453.0 -0.00449300247133118 -0.00642706626062891 -0.0019340632746169 0.00546003625182125 -0.00127947013102378 -0.0041805659432421 0.00484952764206367 0.000685834483354476 -0.00355817731109023 -0.00545828339913457 -0.00577454561483655 -0.00586657858978771
454.0 -0.00441927610463711 -0.00632074760123563 -0.00190146637970152 0.00537001524974749 -0.00125890271071998 -0.00411110759568486 0.00476301876712196 0.000662157286315464 -0.00350031927885357 -0.00536258701603844 -0.00567178373787041 -0.0057615979346393
455.0 -0.00434768282692915 -0.00621739767622457 -0.00186971221508411 0.00528254200027697 -0.00123898419818898 -0.00404355525722356 0.00467892561044043 0.000639307439967641 -0.00344404202300887 -0.00526961081414338 -0.00557197760062424 -0.00565964520543281
456.0 -0.00427815806428292 -0.00611692006094526 -0.00183876064055349 0.00519753996285609 -0.00121969571562839 -0.00397784293711521 0.00459739580757206 0.000617229947281013 -0.00338935487072774 -0.00517930133423574 -0.00547504193531053 -0.00556063407363984
457.0 -0.00421062975814087 -0.0060193718579627 -0.00180874625362433 0.00511500369747013 -0.00120094020977664 -0.00391405796130319 0.00451835495222806 0.000595897465819795 -0.00333621410433774 -0.00509163590710619 -0.00538098136488667 -0.00546456376420556
458.0 -0.0041451044797205 -0.00592472909274672 -0.00177962675143033 0.00503491584775666 -0.00118273564409766 -0.00385217735863791 0.00444181325893489 0.000575349776012742 -0.00328466999674142 -0.0050066465299248 -0.0052897837134727 -0.00537141932231878
459.0 -0.00408152253675854 -0.00583289208820765 -0.00175137065231322 0.00495720440338115 -0.00116507671048965 -0.00379213108019245 0.00436751398165176 0.000555524874167037 -0.00323464168615861 -0.00492419441308725 -0.00520131656251152 -0.00528107175074683
460.0 -0.0040197901241278 -0.00574370278734969 -0.00172391808188979 0.00488174495811445 -0.00114793641662777 -0.00373381028529088 0.00429524731489779 0.000536296712826306 -0.00318606813668336 -0.00484416929132902 -0.00511545837078648 -0.00519338186184874
461.0 -0.00395979587518042 -0.00565698763463585 -0.00169719454902034 0.00480839098392156 -0.00113130086669048 -0.00367709101495264 0.00422510417884506 0.000517641643409442 -0.00313884999953663 -0.00476640765679417 -0.00503205438131733 -0.00510820036996011
462.0 -0.00390147760571738 -0.005572647578693 -0.00167117140906149 0.00473706219529637 -0.0011151532031479 -0.00362190945430127 0.00415710712009996 0.000499682860490141 -0.00309291672158715 -0.0046908738539522 -0.00495105403583634 -0.00502548438541764
463.0 -0.00384477904323508 -0.00549058795981636 -0.00164580965588747 0.00466768329719452 -0.00109948474763579 -0.00356819878747795 0.00409130170935177 0.000482607024597871 -0.00304813009097534 -0.00461740882096361 -0.00487231486015958 -0.00494509538188404
464.0 -0.00378967121828855 -0.00541086193724027 -0.00162119109955128 0.0046002640466054 -0.00108424251311662 -0.00351602650790713 0.0040274251424586 0.000466228332285727 -0.00300455966149559 -0.00454605682211175 -0.00479587025025757 -0.0048670542318985
465.0 -0.00373619258851821 -0.00533348717380675 -0.00159729478122362 0.00453483857810562 -0.00106944774088445 -0.00346539339808357 0.00396521112389421 0.000450184274269858 -0.00296237709409455 -0.00447688431235697 -0.00472172769471764 -0.00479134742109775
466.0 -0.00368423194989127 -0.00525830779663566 -0.00157407594761303 0.00447126920244145 -0.00105507740254137 -0.00341619311824844 0.00390471178852188 0.000434487157827388 -0.00292141846025372 -0.00440970716601785 -0.00464973578676024 -0.00471784669380093
467.0 -0.00363375631354004 -0.00518522900556282 -0.0015514727439506 0.00440949474017597 -0.00104113905066477 -0.00336835151626936 0.00384595397570282 0.000419283054580328 -0.00288168185143487 -0.00434452763273545 -0.00457986995250245 -0.0046465054309068
468.0 -0.00358459343463214 -0.00511420684879305 -0.00152961344089368 0.00434940121283142 -0.00102748616335363 -0.00332191290106619 0.00378891753895989 0.000404829110734698 -0.002842962503798 -0.00428117220094313 -0.0045120010946879 -0.00457721229775559
469.0 -0.00353672741946569 -0.00504514106868482 -0.00150841366298133 0.00429093479549408 -0.00101415490472381 -0.00327677878475422 0.0037335435873977 0.000391010743260189 -0.00280522293071205 -0.00421957580545606 -0.00444603364160687 -0.00450988086693596
470.0 -0.00349023256877336 -0.00497784904969051 -0.00148761648800203 0.00423404351907388 -0.00100130847998658 -0.00323273349931596 0.00367974843231033 0.000377607879804124 -0.00276851661285953 -0.00415966613481268 -0.00438187957684351 -0.00444439386602336
471.0 -0.00344502098271164 -0.00491220281660556 -0.00146718183754125 0.00417861329470257 -0.000988919798894563 -0.00318969512909188 0.0036276054366806 0.000364639198370404 -0.00273271582048585 -0.00410129436808166 -0.0043194062541356 -0.00438063269919109
472.0 -0.00340099889051854 -0.00484834997215996 -0.0014473510835191 0.00412467757548482 -0.000976825960779631 -0.00314784954436857 0.00357681758465708 0.000352081806543722 -0.00269788579976813 -0.00404457311679946 -0.0042587055002267 -0.00431868187062882
473.0 -0.00335813742614971 -0.00478642472641578 -0.00142828730123271 0.004072282694909 -0.000964926121559363 -0.0031073555075271 0.00352725623025879 0.000339877825770117 -0.00266412806695996 -0.00398957976184972 -0.00419983914392007 -0.0042585994394422
474.0 -0.0033164120253088 -0.00472624872283547 -0.0014098318460883 0.0040213312073513 -0.000953290149648556 -0.00306804244978488 0.00347900070379165 0.000328134284395013 -0.00263132021358212 -0.00393618432164629 -0.00414267890119104 -0.00420026488481414
475.0 -0.00327585370956292 -0.00466766706716407 -0.00139181086004963 0.00397175839137294 -0.000942020485277549 -0.00302974007832898 0.00343208214113281 0.000316777219797769 -0.00259942348264618 -0.00388427621341277 -0.00408711991511476 -0.00414355308668866
476.0 -0.0032363862622292 -0.00461058546303987 -0.00137419791505516 0.00392348240860301 -0.000931092719549966 -0.0029923898369456 0.00338652142316708 0.000305749147803941 -0.0025683548466384 -0.00383375484100413 -0.00403304512950719 -0.00408836566890822
477.0 -0.0031979219271115 -0.00455489714286036 -0.00135697455383369 0.0038764077568284 -0.000920473908478525 -0.00295593732084111 0.00334231474369956 0.000295189322565692 -0.00253798422761528 -0.00378450534171311 -0.00398036517147968 -0.00403461802324534
478.0 -0.00316041552675846 -0.00450060051327658 -0.00134017979382395 0.00383050467864264 -0.000910117495478113 -0.00292039333756765 0.00329932428906859 0.000285080157389171 -0.0025083416993392 -0.00373651710284301 -0.00392906314291326 -0.00398227629671506
479.0 -0.00312380013610497 -0.00444768019821429 -0.00132387738887714 0.00378573844699846 -0.000899961182626328 -0.00288577800673024 0.00325731899803099 0.000275252484643623 -0.00247948155946355 -0.00368982347639771 -0.00387913519648414 -0.00393133761739212
480.0 -0.00308808011718726 -0.00439604579905995 -0.00130796430567566 0.00374206207257363 -0.000890056837046969 -0.00285200464731016 0.00321628666137229 0.000265768170185575 -0.00245132501817563 -0.00364433488961009 -0.00383051142446134 -0.00388173743162294
481.0 -0.00305333534658563 -0.00434580118804503 -0.00129246513298436 0.00369956781142853 -0.000880435041816087 -0.00281913052602043 0.00317635199598292 0.000256565905782542 -0.00242397222011983 -0.0036001216763106 -0.00378324802468171 -0.00383351528581365
482.0 -0.00301950505461861 -0.00429695131989893 -0.00127744590055283 0.00365823037853333 -0.000871030513965633 -0.00278719967993937 0.00313747731626006 0.000247626259404125 -0.00239738738555184 -0.00355715211770115 -0.00373730600104719 -0.00378663816741111
483.0 -0.00298655795666533 -0.00424947448566802 -0.00126291148930265 0.00361801734924884 -0.000861823230826709 -0.00275619596414869 0.00309967718496623 0.000239010065582417 -0.00237148901966223 -0.00351536621731743 -0.00369264587037293 -0.00374108422940573
484.0 -0.00295441002009863 -0.00420310720877172 -0.00124869459420325 0.00357875676921109 -0.000852857226284506 -0.00272590243389283 0.00306272620617648 0.000230572517046804 -0.00234626428001763 -0.00347466030955559 -0.00364912600806253 -0.00369668696286492
485.0 -0.00292295976115225 -0.00415770414590824 -0.00123474304910631 0.00354033100359707 -0.000844108590679246 -0.00269622196043135 0.0030266199391544 0.000222371523940681 -0.00232164348008307 -0.0034349228034673 -0.00360664439325142 -0.00365333638824463
486.0 -0.00289219375082192 -0.00411328266019984 -0.00122108336984092 0.00350273771647921 -0.000835556281680257 -0.00266718217224322 0.00299148224811664 0.000214597983051872 -0.00229748400219227 -0.00339608169551023 -0.00356515820881768 -0.00361102440673183
487.0 -0.00286219726255444 -0.00406991961739709 -0.00120771950305355 0.00346605818821913 -0.000827239441501918 -0.00263881670039024 0.0029573235278585 0.000207216255834583 -0.0022738240203861 -0.00335816299296809 -0.00352468422772098 -0.00356975655287778
488.0 -0.0028329171569458 -0.00402768855203229 -0.00119476992696722 0.00343030029891512 -0.000819072448601736 -0.00261123019320636 0.00292402297935097 0.000200122116070059 -0.0022507462620732 -0.00332123830778904 -0.00348527475221237 -0.00352957449139292
489.0 -0.00280435033717075 -0.00398649631788109 -0.00118214522491313 0.00339542443786811 -0.000811100500084232 -0.00258432126237137 0.00289150871060885 0.000193194950717014 -0.00222827390810888 -0.00328527172722219 -0.00344688392878527 -0.00349043174443273
490.0 -0.0027764369857318 -0.00394629496267109 -0.00116985758785006 0.00336136654581271 -0.00080329009605677 -0.00255807652801727 0.00285964182052196 0.000186349378117118 -0.00220638492859377 -0.00325020594766548 -0.00340944448433702 -0.00345226071748136
491.0 -0.00274918997562249 -0.00390701613284157 -0.00115783080884946 0.00332810334850116 -0.000795678817437117 -0.00253242602693428 0.00282836535771794 0.000179519609534249 -0.00218515046530682 -0.00321607939596197 -0.00337298000947594 -0.00341506057600154
492.0 -0.0027225771184542 -0.00386863919535004 -0.00114606932352093 0.00329560830839376 -0.000788253988344589 -0.00250735800129434 0.00279775189392196 0.000172861972397503 -0.00216445188053885 -0.00318282451964825 -0.00333743472169406 -0.00337879207488009
493.0 -0.00269651391633443 -0.00383113897236619 -0.00113462878664073 0.00326382409637117 -0.000780944067212205 -0.00248288580583634 0.00276803771889884 0.000166659755992845 -0.00214408254075781 -0.00315028524388371 -0.00330270712475922 -0.00334338163918552
