0.0      0      0      0      0      0      0      0      0      0      0      0      0
1.0 -0.00606178 -0.00960154 -0.00353976 0.00783166 -0.00126101 -0.00657065 0.0168363 0.00243185 -0.00403368 -0.00592207 -0.00601996 -0.00611194
2.0 -0.0164538 -0.0251101 -0.00865627 0.020782 -0.00389878 -0.0168832 0.0442676 0.00519494 -0.0112121 -0.0157476 -0.015864 -0.0160184
3.0 -0.0299171 -0.0387676 -0.00885054 0.0343423 -0.0105333 -0.0238091 0.0801514 0.00934497 -0.0163801 -0.0230995 -0.0235699 -0.0238229
4.0 -0.0334116 -0.0382058 -0.00479419 0.0358087 -0.0143087 -0.0215 0.0912412 0.0114825 -0.014843 -0.0214932 -0.0222938 -0.0226082
5.0 -0.0442389 -0.0653982 -0.0211593 0.0548186 -0.0115398 -0.0432787 0.044869 -0.0358653 -0.0510704 -0.0501401 -0.0445086 -0.0420326
6.0 -0.024758 -0.0307749 -0.0060169 0.0277664 -0.00937054 -0.0183959 0.0303577 -0.0191575 -0.0260669 -0.0245911 -0.0214152 -0.0199865
7.0 -0.00201685 0.0182514 0.0202682 -0.00811727 -0.0111425 0.0192598 0.025844 0.012521 0.0141139 0.0149297 0.0133651 0.0128785
8.0 0.00524309 0.0239374 0.0186943 -0.0145902 -0.00672561 0.0213159 0.01378 0.0156532 0.0180035 0.0181941 0.0163589 0.0156463
9.0 0.000652838 0.0189932 0.0183404 -0.00982304 -0.00884379 0.0186668 0.0146608 0.00715262 0.010526 0.0128138 0.0123034 0.0123227
10.0 -0.000330822 0.015181 0.0155118 -0.00742508 -0.00792131 0.0153464 0.00953414 0.00208996 0.00589941 0.00913379 0.00955352 0.0099966
11.0 -0.0031801 0.0112817 0.0144618 -0.00405078 -0.00882093 0.0128717 0.00361213 -0.00558567 -0.00028142 0.00476263 0.00648988 0.00757944
12.0 -0.00797875 0.00667012 0.0146489 0.000654315 -0.0113138 0.0106595 2.75195e-05 -0.0148536 -0.00692676 0.000407213 0.00349804 0.00529375
13.0 -0.010842 0.00388174 0.0147238 0.00348015 -0.0127829 0.00930276 0.0070294 -0.0157481 -0.00949601 -0.00174718 0.00183833 0.00391942
14.0 -0.0133636 0.00211977 0.0154833 0.00562189 -0.0144234 0.00880155 0.0167079 -0.016013 -0.0110818 -0.0028181 0.00113675 0.00346243
15.0 -0.0149055 0.00720007 0.0221056 0.00385272 -0.0185056 0.0146528 0.0285578 -0.0138986 -0.00828045 0.00124877 0.00518072 0.00767362
16.0 -0.0162974 0.014841 0.0311385 0.000728184 -0.0237179 0.0229898 0.0417342 -0.0114153 -0.00368475 0.0075359 0.0112643 0.0138838
17.0 -0.0158157 0.0202268 0.0360425 -0.00220555 -0.0259291 0.0281346 0.0492247 -0.0123574 -0.00210408 0.0108578 0.014839 0.0177159
18.0 -0.0170935 0.0256704 0.0427639 -0.00428848 -0.0299287 0.0342172 0.0551785 -0.0172067 -0.00265444 0.013537 0.0184252 0.0219436
19.0 -0.018849 0.0243284 0.0431775 -0.0027397 -0.0310133 0.033753 0.0577734 -0.0273076 -0.00916896 0.0102906 0.0169922 0.0214266
20.0 -0.0190604 0.0238731 0.0429335 -0.00240635 -0.030997 0.0334033 0.067114 -0.0329944 -0.0132384 0.00820819 0.016102 0.0211124
21.0 -0.0197649 0.022953 0.0427179 -0.00159402 -0.0312414 0.0328355 0.0801109 -0.0330268 -0.0154095 0.00658453 0.0151464 0.0204561
22.0 -0.019229 0.0282481 0.047477 -0.00450955 -0.033353 0.0378626 0.098463 -0.0318495 -0.0151965 0.00815064 0.0172847 0.0229378
23.0 -0.014793 0.039948 0.0547409 -0.0125775 -0.0347669 0.0473444 0.117296 -0.0243899 -0.00881699 0.0149058 0.0235335 0.0290395
24.0 -0.00994847 0.0522426 0.0621911 -0.0211471 -0.0360698 0.0572169 0.120477 -0.0262406 -0.00663853 0.0199773 0.0292308 0.0351652
25.0 0.000829101 0.0676845 0.0668554 -0.0342568 -0.0330131 0.0672699 0.104567 -0.0296831 -0.00452247 0.025011 0.0350711 0.0414205
26.0 0.012677 0.0886438 0.0759668 -0.0506604 -0.0316449 0.0823053 0.0769321 -0.0230432 0.00525361 0.0359208 0.0453355 0.0514496
27.0 0.029705 0.106045 0.07634 -0.0678751 -0.0233175 0.0911926 0.0619726 -0.00121578 0.0205316 0.0470907 0.0540655 0.0589378
28.0 0.0436111 0.128031 0.0844195 -0.0858209 -0.0204042 0.106225 0.0770966 0.0305524 0.0426851 0.0641083 0.0673008 0.0704589
29.0 0.0574649 0.146177 0.0887126 -0.101821 -0.0156238 0.117445 0.0566303 0.0400582 0.05488 0.07586 0.0776904 0.0801987
30.0 0.0692663 0.165859 0.0965923 -0.117562 -0.013663 0.131225 0.0244268 0.0476555 0.0694022 0.090642 0.0907564 0.0924789
31.0 0.0771722 0.187232 0.11006 -0.132202 -0.016444 0.148646 0.00731373 0.058459 0.0842075 0.106069 0.104359 0.10545
32.0 0.0810382 0.200682 0.119643 -0.14086 -0.0193026 0.160162 0.00776249 0.0691548 0.0939435 0.115241 0.11204 0.112627
33.0 0.0873022 0.213767 0.126465 -0.150535 -0.0195814 0.170116 -0.0227778 0.0683575 0.0996195 0.123065 0.119827 0.120485
34.0 0.092217 0.226331 0.134114 -0.159274 -0.0209484 0.180222 -0.0560495 0.0625995 0.102849 0.129489 0.126734 0.127729
35.0 0.0980827 0.240839 0.142756 -0.169461 -0.0223368 0.191798 -0.087885 0.0609231 0.10997 0.138906 0.135912 0.13688
36.0 0.104234 0.248385 0.144151 -0.176309 -0.0199588 0.196268 -0.139475 0.0484013 0.108215 0.140598 0.138804 0.140289
37.0 0.105914 0.258351 0.152437 -0.182133 -0.0232616 0.205394 -0.17262 0.0366875 0.107845 0.145136 0.144614 0.14686
38.0 0.111594 0.268141 0.156547 -0.189868 -0.0224764 0.212344 -0.179573 0.048289 0.118296 0.153678 0.151676 0.153303
39.0 0.120455 0.264085 0.143629 -0.19227 -0.011587 0.203857 -0.209527 0.0449469 0.115447 0.149476 0.148271 0.149891
40.0 0.127384 0.262749 0.135364 -0.195066 -0.00399005 0.199057 -0.256546 0.0279207 0.108433 0.144963 0.145576 0.147744
41.0 0.130336 0.26654 0.136203 -0.198438 -0.00293333 0.201371 -0.268461 0.0272468 0.110804 0.148526 0.149393 0.151809
42.0 0.132968 0.282624 0.149656 -0.207796 -0.00834363 0.21614 -0.269063 0.037268 0.124326 0.163767 0.163341 0.165457
43.0 0.133657 0.29333 0.159673 -0.213494 -0.0130082 0.226502 -0.275679 0.0453089 0.135081 0.175721 0.174067 0.175849
44.0 0.136292 0.305337 0.169045 -0.220815 -0.0163763 0.237191 -0.281127 0.0530755 0.145167 0.186926 0.184285 0.18573
45.0 0.143111 0.320891 0.17778 -0.232001 -0.0173348 0.249335 -0.30689 0.046699 0.149117 0.19506 0.19293 0.19467
46.0 0.146931 0.32987 0.182939 -0.2384 -0.0180044 0.256404 -0.322441 0.0432927 0.14954 0.198419 0.197162 0.199356
47.0 0.148257 0.333456 0.185199 -0.240856 -0.0184707 0.259327 -0.322798 0.0446326 0.149026 0.199295 0.198813 0.201425
48.0 0.149083 0.336677 0.187594 -0.24288 -0.0192554 0.262136 -0.314939 0.0494433 0.149106 0.199882 0.199896 0.202835
49.0 0.149352 0.334715 0.185363 -0.242033 -0.0180056 0.260039 -0.315104 0.0484992 0.143613 0.195482 0.196944 0.200545
50.0 0.15032 0.331146 0.180826 -0.240733 -0.0152527 0.255986 -0.314318 0.0543631 0.143707 0.193191 0.194258 0.197478
51.0 0.14809 0.332252 0.184162 -0.240171 -0.0180357 0.258207 -0.302287 0.0509452 0.138931 0.189977 0.191832 0.195584
52.0 0.145164 0.333483 0.188318 -0.239324 -0.0215769 0.2609 -0.307146 0.0365552 0.131349 0.187576 0.191605 0.196672
53.0 0.139012 0.333092 0.19408 -0.236052 -0.0275342 0.263586 -0.338918 0.00715555 0.116749 0.182113 0.190471 0.197781
54.0 0.128055 0.330937 0.202882 -0.229496 -0.0374135 0.266909 -0.364866 -0.0366126 0.0952487 0.172302 0.186026 0.196152
55.0 0.121398 0.322507 0.201109 -0.221952 -0.0398552 0.261808 -0.419494 -0.10258 0.0610582 0.154288 0.17654 0.190674
56.0 0.12282 0.308756 0.185936 -0.215788 -0.0315578 0.247346 -0.478305 -0.140675 0.0396053 0.14103 0.169302 0.185884
57.0 0.126605 0.316841 0.190237 -0.221723 -0.031816 0.253539 -0.498812 -0.162986 0.0343416 0.143851 0.175178 0.193057
58.0 0.132852 0.337514 0.204662 -0.235183 -0.0359048 0.271088 -0.502172 -0.178059 0.0389371 0.155986 0.188347 0.206666
59.0 0.136889 0.349585 0.212696 -0.243237 -0.0379032 0.28114 -0.501641 -0.186339 0.0450798 0.165568 0.197605 0.215759
60.0 0.139602 0.357456 0.217854 -0.248529 -0.0391257 0.287655 -0.505283 -0.194682 0.0460232 0.17078 0.203738 0.222298
61.0 0.143007 0.358077 0.21507 -0.250542 -0.0360316 0.286573 -0.500124 -0.197065 0.0484552 0.174946 0.20812 0.226574
62.0 0.141415 0.340806 0.199391 -0.241111 -0.0289879 0.270099 -0.489883 -0.202159 0.0379093 0.16318 0.19787 0.216889
63.0 0.142771 0.31877 0.175999 -0.23077 -0.0166138 0.247384 -0.465935 -0.196436 0.0338272 0.153094 0.18681 0.204818
64.0 0.147288 0.301571 0.154282 -0.224429 -0.00349694 0.227926 -0.447941 -0.19295 0.0343124 0.14877 0.180727 0.197238
65.0 0.150792 0.282704 0.131912 -0.216748 0.00943986 0.207308 -0.42464 -0.176074 0.0412256 0.147383 0.175992 0.19026
66.0 0.150578 0.251418 0.10084 -0.200998 0.024869 0.176129 -0.400343 -0.160233 0.0450106 0.141565 0.166892 0.17902
67.0 0.149068 0.224343 0.0752757 -0.186705 0.036896 0.14981 -0.376252 -0.151681 0.0471319 0.137311 0.160466 0.171049
68.0 0.143834 0.20105 0.0572166 -0.172442 0.0433086 0.129133 -0.350403 -0.148024 0.0498581 0.134538 0.155569 0.164498
69.0 0.13879 0.178816 0.0400266 -0.158803 0.0493815 0.109421 -0.345585 -0.174421 0.0344342 0.121346 0.145509 0.155396
70.0 0.136125 0.181201 0.0450763 -0.158663 0.0455241 0.113139 -0.325509 -0.171701 0.0474101 0.132767 0.154687 0.163211
71.0 0.137532 0.180735 0.0432032 -0.159134 0.0471644 0.111969 -0.316417 -0.173013 0.0548557 0.140329 0.161605 0.16948
72.0 0.139028 0.184755 0.0457275 -0.161891 0.04665 0.115241 -0.306524 -0.167875 0.0647083 0.151335 0.17207 0.179555
73.0 0.137165 0.188769 0.0516033 -0.162967 0.042781 0.120186 -0.2936 -0.165409 0.0714889 0.162494 0.184149 0.191915
74.0 0.135964 0.182907 0.0469436 -0.159435 0.04451 0.114925 -0.285786 -0.1699 0.0701308 0.165221 0.189161 0.197544
75.0 0.133661 0.183148 0.0494876 -0.158405 0.0420866 0.116318 -0.27996 -0.174894 0.066213 0.165586 0.191878 0.201238
76.0 0.132394 0.189782 0.057388 -0.161088 0.037503 0.123585 -0.267612 -0.16702 0.0724268 0.172948 0.199238 0.208593
77.0 0.131823 0.191159 0.0593362 -0.161491 0.0362434 0.125248 -0.256063 -0.155131 0.0783668 0.175964 0.201028 0.209669
78.0 0.133217 0.197462 0.0642455 -0.165339 0.0344855 0.130854 -0.242456 -0.143697 0.085812 0.182368 0.206836 0.215051
79.0 0.135247 0.204277 0.0690297 -0.169762 0.0331085 0.136653 -0.234743 -0.141522 0.0908709 0.190938 0.216113 0.224313
80.0 0.13468 0.210158 0.0754782 -0.172419 0.0296008 0.142818 -0.227134 -0.139414 0.096687 0.200057 0.225482 0.233547
81.0 0.132772 0.216258 0.0834867 -0.174515 0.0246425 0.149873 -0.222644 -0.142571 0.0955236 0.203683 0.230859 0.239576
82.0 0.131392 0.222144 0.0907517 -0.176768 0.0203202 0.156448 -0.2177 -0.139734 0.0980801 0.208486 0.236455 0.245397
83.0 0.132605 0.220582 0.0879771 -0.176593 0.0223137 0.154279 -0.213689 -0.1365 0.100059 0.210401 0.238719 0.247484
84.0 0.13442 0.216012 0.0815917 -0.175216 0.0264144 0.148802 -0.217241 -0.144695 0.0905845 0.204571 0.236011 0.245865
85.0 0.132808 0.216507 0.0836986 -0.174658 0.0245549 0.150103 -0.219802 -0.152244 0.0854948 0.204385 0.238062 0.248712
86.0 0.125172 0.22083 0.0956584 -0.173001 0.0147568 0.158244 -0.216581 -0.158681 0.0796006 0.204519 0.239962 0.251601
87.0 0.111953 0.220694 0.108741 -0.166323 0.00160614 0.164717 -0.204253 -0.161308 0.0631935 0.191967 0.229777 0.243804
88.0 0.10457 0.221855 0.117285 -0.163212 -0.00635783 0.16957 -0.195825 -0.157432 0.0575167 0.186961 0.225407 0.240539
89.0 0.101801 0.220324 0.118523 -0.161062 -0.00836118 0.169423 -0.190994 -0.151465 0.057423 0.184443 0.222201 0.237248
90.0 0.100312 0.22325 0.122938 -0.161781 -0.0113129 0.173094 -0.183928 -0.141782 0.0642327 0.188788 0.224642 0.238706
91.0 0.0993023 0.219843 0.120541 -0.159573 -0.0106191 0.170192 -0.17789 -0.132624 0.069552 0.189928 0.223169 0.235545
92.0 0.0999296 0.205824 0.105894 -0.152877 -0.00298234 0.155859 -0.170188 -0.119404 0.0756822 0.188099 0.217447 0.227349
93.0 0.100078 0.189286 0.0892076 -0.144682 0.00543542 0.139247 -0.162813 -0.107788 0.0777318 0.181596 0.208091 0.216194
94.0 0.103961 0.170417 0.0664557 -0.137189 0.0187526 0.118436 -0.168087 -0.111844 0.0682312 0.169081 0.196821 0.204693
95.0 0.100049 0.161212 0.0611634 -0.130631 0.0194427 0.111188 -0.159697 -0.103535 0.0685652 0.164335 0.190443 0.197316
96.0 0.0959436 0.148312 0.0523688 -0.122128 0.0217874 0.100341 -0.153899 -0.104933 0.0545108 0.147097 0.174471 0.181845
97.0 0.0918139  0.125 0.0331864 -0.108407 0.0293137 0.0790933 -0.154777 -0.111126 0.0337368 0.121825 0.150892 0.159111
98.0 0.0855548 0.113012 0.027457 -0.0992834 0.0290489 0.0702345 -0.143867 -0.105401 0.0275765 0.110373 0.137749 0.145122
99.0 0.0739166 0.105214 0.0312971 -0.0895651 0.0213097 0.0682554 -0.128136 -0.0964343 0.022298 0.0999469 0.125061 0.132301
100.0 0.0593456 0.100736 0.0413901 -0.0800406 0.00897771 0.0710629 -0.105217 -0.0778348 0.0248614 0.0931871 0.113425 0.119706
101.0 0.0457572 0.0947567 0.0489995 -0.0702569 -0.00162119 0.0718781 -0.0799026 -0.0516011 0.0337206 0.088829 0.102121 0.106357
102.0 0.0309983 0.09049 0.0594918 -0.0607441 -0.0142467 0.0749909 -0.0524073 -0.0247601 0.0424794 0.0850665 0.092026 0.0948104
103.0 0.0149304 0.0801648 0.0652345 -0.0475476 -0.0251521 0.0726997 -0.0338346 -0.0116945 0.0327514 0.0655228 0.0709906 0.0750193
104.0 0.00371189 0.0657969 0.062085 -0.0347544 -0.0291866 0.063941 -0.024632 -0.00869613 0.0153377 0.0419046 0.0487483 0.054981
105.0 0.000678736 0.0616289 0.0609501 -0.0311538 -0.0301357 0.0612895 -0.0247799 -0.0125137 0.0116284 0.0379147 0.0448653 0.0509478
106.0 -0.00224901 0.0609544 0.0632034 -0.0293527 -0.0327262 0.0620789 -0.0238928 -0.0147812 0.0103298 0.0366376 0.0432064 0.0491739
107.0 -0.00279962 0.0577214 0.0605211 -0.0274609 -0.0316603 0.0591213 -0.0267401 -0.0186686 0.00703464 0.0331649 0.0400392 0.0460659
108.0 -0.00133071 0.0498912 0.0512219 -0.0242803 -0.0262763 0.0505566 -0.0325539 -0.0237005 0.00122424 0.0258807 0.0332576 0.039222
109.0 -0.0010512 0.0434669 0.0445181 -0.0212078 -0.0227846 0.0439925 -0.0350081 -0.0263568 -0.00261479 0.020367 0.0276637 0.0333526
110.0 0.000436513 0.0276776 0.0272411 -0.0140571 -0.0134023 0.0274594 -0.0316676 -0.0186593 -0.00187488 0.0125395 0.0168009 0.0201597
111.0 0.00240231 0.0232948 0.0208925 -0.0128485 -0.00924508 0.0220936 -0.0216172 -0.00225796 0.0103635 0.017222 0.0167835 0.0168872
112.0 0.0028995 0.0245596 0.0216601 -0.0137296 -0.0093803 0.0231099 -0.021136 -1.83713e-05 0.0136078 0.019796 0.0184987 0.0179554
113.0 0.00324559 0.025132 0.0218864 -0.0141888 -0.00932041 0.0235092 -0.026995 -0.00677708 0.00932702 0.0177871 0.0179914 0.0182185
114.0 0.00391938 0.0246773 0.0207579 -0.0142984 -0.00841928 0.0227176 -0.0344424 -0.0157468 0.00303675 0.0144139 0.0168074 0.018172
115.0 0.00374647 0.0241594 0.020413 -0.0139529 -0.00833325 0.0222862 -0.0387626 -0.0215008 -0.00100207 0.0121376 0.0158412 0.017905
116.0 0.003385 0.0235581 0.0201731 -0.0134715 -0.00839405 0.0218656 -0.0426131 -0.0272242 -0.00529719 0.00963831 0.0147288 0.0175307
117.0 0.00347475 0.0207715 0.0172968 -0.0121231 -0.00691102 0.0190342 -0.0436982 -0.0288593 -0.00714985 0.00746908 0.0128743 0.0157608
118.0 0.0039213 0.017325 0.0134037 -0.0106231 -0.0047412 0.0153643 -0.0449418 -0.0303881 -0.00910874 0.00498654 0.0107228 0.0136384
119.0 0.00497319 0.0139753 0.00900209 -0.00947424 -0.00201445 0.0114887 -0.0457144 -0.0305546 -0.00977247 0.00327297 0.00898654 0.0116803
120.0 0.00465666 0.0117876 0.00713093 -0.00822212 -0.00123714 0.00945926 -0.0457863 -0.0315429 -0.0114099 0.00122993 0.00716256 0.00992213
121.0 0.00479651 0.00720618 0.00240967 -0.00600134 0.00119342 0.00480793 -0.0451754 -0.0309107 -0.0123086 -0.00134438 0.00436717 0.00688524
122.0 0.00393199 0.00401164 7.96414e-05 -0.00397181 0.00192618 0.00204564 -0.0426591 -0.0289958 -0.0120864 -0.00281284 0.00230597 0.0045146
123.0 0.00339397 0.00388299 0.00048902 -0.00363848 0.00145247 0.00218601 -0.040706 -0.0278352 -0.0111711 -0.00222366 0.00256774 0.00462915
124.0 0.00337154 0.00402442 0.000652876 -0.00369798 0.00135933 0.00233865 -0.0403392 -0.0282402 -0.011112 -0.00175726 0.00315687 0.00526313
125.0 0.00331782 0.00415374 0.000835922 -0.00373578 0.00124095 0.00249483 -0.0397776 -0.0283971 -0.0109132 -0.00126135 0.00370457 0.0058248
126.0 0.00310549 0.00415547 0.00104998 -0.00363048 0.00102776 0.00260273 -0.0392763 -0.0287498 -0.0109834 -0.00102616 0.00402888 0.00618463
127.0 0.00288199 0.00375171 0.000869719 -0.00331685 0.00100614 0.00231071 -0.0387102 -0.0289796 -0.0111274 -0.00101981 0.00409965 0.00627323
128.0 0.00260383 0.00321191 0.000608081 -0.00290787 0.000997873 0.00190999 -0.0379425 -0.0290482 -0.0112579 -0.00110165 0.00404744 0.00622351
129.0 0.00230194 0.00276284 0.0004609 -0.00253239 0.000920519 0.00161187 -0.0370499 -0.0289869 -0.0112961 -0.00112689 0.00401445 0.00617876
130.0 0.00196643 0.0022314 0.000264974 -0.00209892 0.000850728 0.00124819 -0.0361182 -0.0288975 -0.0113752 -0.00123276 0.00389389 0.00604371
131.0 0.00160199 0.00162674 2.47529e-05 -0.00161437 0.000788619 0.000825748 -0.0351541 -0.0287816 -0.0114908 -0.00141111 0.00369457 0.00582751
132.0 0.00121111 0.00095943 -0.000251679 -0.00108527 0.000731394 0.000353875 -0.0341626 -0.0286432 -0.0116396 -0.00165418 0.00342502 0.00553903
133.0 0.000796444 0.000237465 -0.000558979 -0.000516954 0.000677711 -0.000160757 -0.033145 -0.0284833 -0.0118175 -0.0019551 0.00309223 0.00518546
134.0 0.000360172 -0.000531936 -0.000892108 8.58819e-05 0.00062614 -0.000712022 -0.0321033 -0.0283025 -0.0120211 -0.00230792 0.00270253 0.00477325
135.0 -9.52994e-05 -0.00134452 -0.00124922 0.000719909 0.00057696 -0.00129687 -0.031041 -0.0281015 -0.0122478 -0.00270818 0.00226064 0.00430725
136.0 -0.000568181 -0.00219522 -0.00162704 0.0013817 0.000529428 -0.00191113 -0.0299626 -0.0278823 -0.0124952 -0.00315136 0.00177158 0.00379266
137.0 -0.00105658 -0.00307985 -0.00202327 0.00206821 0.000483346 -0.00255156 -0.0288698 -0.0276473 -0.0127624 -0.00363406 0.00123926 0.00323362
138.0 -0.00155839 -0.00399458 -0.00243618 0.00277648 0.000438896 -0.00321538 -0.0277661 -0.0273979 -0.0130475 -0.00415291 0.000667419 0.00263412
139.0 -0.00207244 -0.00493643 -0.00286399 0.00350443 0.000395773 -0.00390021 -0.0266524 -0.0271352 -0.0133494 -0.00470498 5.94069e-05 0.00199754
140.0 -0.00259682 -0.00590137 -0.00330455 0.0042491 0.000353865 -0.00460296 -0.0255319 -0.0268598 -0.0136656 -0.00528659 -0.000580982 0.00132782
141.0 -0.00313027 -0.00688694 -0.00375667 0.00500861 0.000313197 -0.00532181 -0.0244075 -0.0265747 -0.0139958 -0.00589545 -0.00125096 0.000627918
142.0 -0.00367181 -0.00789057 -0.00421876 0.00578119 0.000273473 -0.00605467 -0.0232802 -0.0262813 -0.0143389 -0.00652924 -0.00194792 -9.94545e-05
143.0 -0.00422013 -0.00891083 -0.0046907 0.00656548 0.000235284 -0.00680077 -0.0221517 -0.0259791 -0.0146937 -0.00718609 -0.00266976 -0.000852148
144.0 -0.00477436 -0.00994376 -0.0051694 0.00735906 0.00019752 -0.00755658 -0.021023 -0.0256696 -0.0150583 -0.00786238 -0.00341281 -0.00162639
145.0 -0.0053333 -0.0109883 -0.00565503 0.00816082 0.000160866 -0.00832168 -0.0198959 -0.0253529 -0.015432 -0.00855689 -0.00417551 -0.00242055
146.0 -0.0058955 -0.0120428 -0.00614735 0.00896917 0.000125928 -0.0090951 -0.0187732 -0.025031 -0.0158143 -0.0092682 -0.00495628 -0.00323301
147.0 -0.00646014 -0.013106 -0.0066459 0.00978309 9.28806e-05 -0.00987597 -0.0176559 -0.024706 -0.0162051 -0.00999481 -0.00575323 -0.00406175
148.0 -0.00702681 -0.0141754 -0.00714858 0.0106011 6.08875e-05 -0.010662 -0.0165433 -0.0243753 -0.0166019 -0.0107339 -0.00656361 -0.00490404
149.0 -0.0075941 -0.0152502 -0.00765606 0.0114221 3.09814e-05 -0.0114531 -0.0154376 -0.0240425 -0.0170047 -0.0114844 -0.00738615 -0.00575855
150.0 -0.00816195 -0.0163294 -0.0081675 0.0122457 2.77674e-06 -0.0122485 -0.0143381 -0.023707 -0.017413 -0.0122454 -0.00821985 -0.00662429
151.0 -0.00872914 -0.0174115 -0.00868232 0.0130703 -2.34076e-05 -0.0130469 -0.0132478 -0.0233706 -0.0178261 -0.0130152 -0.00906279 -0.00749925
152.0 -0.00929531 -0.0184952 -0.00919993 0.0138953 -4.76919e-05 -0.0138476 -0.0121667 -0.0230336 -0.0182434 -0.0137926 -0.00991348 -0.00838185
153.0 -0.00985966 -0.0195793 -0.00971968 0.0147195 -6.99875e-05 -0.0146495 -0.0110948 -0.0226953 -0.0186633 -0.0145755 -0.0107701 -0.00927036
154.0 -0.0104218 -0.0206631 -0.0102412 0.0155424 -9.03027e-05 -0.0154521 -0.0100326 -0.0223569 -0.0190857 -0.0153634 -0.0116317 -0.0101638
155.0 -0.0109811 -0.021746 -0.0107649 0.0163635 -0.00010812 -0.0162554 -0.00898107 -0.022019 -0.0195106 -0.0161556 -0.0124976 -0.0110613
156.0 -0.0115368 -0.0228286 -0.0112918 0.0171827 -0.000122472 -0.0170602 -0.0079413 -0.0216832 -0.0199387 -0.0169523 -0.0133677 -0.0119628
157.0 -0.0120888 -0.0239078 -0.011819 0.0179983 -0.000134927 -0.0178634 -0.00691181 -0.0213487 -0.0203674 -0.0177503 -0.0142388 -0.0128652
158.0 -0.0126363 -0.0249832 -0.0123468 0.0188098 -0.000144755 -0.018665 -0.00589307 -0.0210151 -0.020796 -0.0185488 -0.0151103 -0.0137679
159.0 -0.0131794 -0.0260543 -0.0128749 0.0196168 -0.00015225 -0.0194646 -0.00488493 -0.0206823 -0.021224 -0.0193469 -0.0159812 -0.0146699
160.0 -0.0137175 -0.0271207 -0.0134032 0.0204191 -0.000157124 -0.020262 -0.00388766 -0.0203518 -0.0216512 -0.020144 -0.0168507 -0.0155702
161.0 -0.0142504 -0.0281828 -0.0139324 0.0212166 -0.000158998 -0.0210576 -0.00290118 -0.0200233 -0.0220778 -0.0209398 -0.0177186 -0.0164688
162.0 -0.0147779 -0.0292394 -0.0144616 0.0220087 -0.000158141 -0.0218505 -0.00192648 -0.0196983 -0.0225038 -0.021734 -0.0185841 -0.0173648
163.0 -0.0152993 -0.0302898 -0.0149905 0.0227946 -0.000154412 -0.0226402 -0.000961752 -0.0193757 -0.0229279 -0.022525 -0.019446 -0.018257
164.0 -0.0158145 -0.031335 -0.0155205 0.0235747 -0.000147034 -0.0234277 -7.52039e-06 -0.0190554 -0.0233499 -0.0233129 -0.0203043 -0.0191455
165.0 -0.0163241 -0.0323736 -0.0160495 0.0243489 -0.000137325 -0.0242115 0.00093752 -0.0187378 -0.0237697 -0.0240968 -0.021158 -0.0200291
166.0 -0.0168274 -0.0334043 -0.0165769 0.0251159 -0.000125259 -0.0249906 0.00187334 -0.0184221 -0.024186 -0.0248754 -0.022006 -0.0209069
167.0 -0.0173244 -0.0344274 -0.017103 0.0258759 -0.000110713 -0.0257652 0.00280149 -0.018108 -0.0245984 -0.0256482 -0.0228478 -0.0217784
168.0 -0.0178148 -0.0354429 -0.0176281 0.0266289 -9.33479e-05 -0.0265355 0.00372104 -0.0177963 -0.025007 -0.0264151 -0.0236832 -0.0226434
169.0 -0.0182988 -0.0364504 -0.0181516 0.0273746 -7.35524e-05 -0.027301 0.00463348 -0.0174861 -0.0254112 -0.0271757 -0.0245117 -0.0235015
170.0 -0.0187765 -0.0374503 -0.0186737 0.0281134 -5.14188e-05 -0.028062 0.00553982 -0.0171772 -0.025811 -0.0279296 -0.0253333 -0.0243526
171.0 -0.0192476 -0.038442 -0.0191944 0.0288448 -2.66153e-05 -0.0288182 0.00643977 -0.0168696 -0.0262058 -0.0286763 -0.0261471 -0.0251959
172.0 -0.0197123 -0.0394264 -0.0197141 0.0295693 9.15956e-07 -0.0295702 0.00733378 -0.0165638 -0.0265965 -0.0294166 -0.0269541 -0.0260322
173.0 -0.0201702 -0.0404012 -0.020231 0.0302857 3.04063e-05 -0.0303161 0.00822338 -0.0162588 -0.0269816 -0.0301487 -0.0277524 -0.0268598
174.0 -0.0206218 -0.0413676 -0.0207457 0.0309947 6.19506e-05 -0.0310567 0.00910901 -0.0159544 -0.027361 -0.0308728 -0.0285426 -0.0276792
175.0 -0.0210668 -0.0423255 -0.0212587 0.0316961 9.59523e-05 -0.0317921 0.00999249 -0.015649 -0.0277337 -0.0315883 -0.0293239 -0.0284901
176.0 -0.0215053 -0.0432739 -0.0217686 0.0323896 0.000131667 -0.0325213 0.0108734 -0.0153436 -0.0281002 -0.032295 -0.0300963 -0.0292919
177.0 -0.0219376 -0.0442139 -0.0222763 0.0330758 0.00016931 -0.0332451 0.0117536 -0.0150368 -0.0284598 -0.0329929 -0.0308599 -0.0300852
178.0 -0.0223644 -0.045145 -0.0227806 0.0337547 0.000208064 -0.0339628 0.0126348 -0.0147276 -0.0288119 -0.0336817 -0.0316146 -0.0308697
179.0 -0.0227849 -0.0460681 -0.0232832 0.0344265 0.000249183 -0.0346757 0.013516 -0.0144169 -0.0291571 -0.0343616 -0.0323606 -0.0316458
180.0 -0.0231996 -0.0469825 -0.0237828 0.035091 0.000291614 -0.0353826 0.014398 -0.0141055 -0.0294965 -0.0350333 -0.0330981 -0.0324133
181.0 -0.0236085 -0.047888 -0.0242794 0.0357482 0.000335467 -0.0360837 0.0152823 -0.0137915 -0.0298283 -0.0356957 -0.0338265 -0.033172
182.0 -0.024012 -0.0487848 -0.0247728 0.0363984 0.000380397 -0.0367788 0.0161701 -0.0134739 -0.0301521 -0.0363487 -0.0345458 -0.0339219
183.0 -0.0244099 -0.049673 -0.0252631 0.0370414 0.00042658 -0.037468 0.0170618 -0.013153 -0.0304679 -0.0369922 -0.035256 -0.0346631
184.0 -0.0248027 -0.0505529 -0.0257502 0.0376778 0.000473761 -0.0381515 0.0179577 -0.0128292 -0.0307769 -0.037627 -0.0359579 -0.035396
185.0 -0.0251901 -0.0514242 -0.0262341 0.0383072 0.000521966 -0.0388291 0.0188581 -0.0125021 -0.0310784 -0.0382528 -0.0366507 -0.0361201
186.0 -0.0255728 -0.0522877 -0.026715 0.0389303 0.000571102 -0.0395014 0.0197647 -0.0121707 -0.0313723 -0.0388699 -0.0373353 -0.0368364
187.0 -0.0259511 -0.0531435 -0.0271924 0.0395473 0.000620653 -0.0401679 0.0206786 -0.0118343 -0.0316582 -0.0394779 -0.0380117 -0.0375448
188.0 -0.0263247 -0.0539912 -0.0276665 0.0401579 0.000670871 -0.0408288 0.0215994 -0.0114933 -0.0319363 -0.040077 -0.0386797 -0.0382452
189.0 -0.0266941 -0.0548312 -0.0281371 0.0407627 0.000721483 -0.0414841 0.0225281 -0.011147 -0.0322066 -0.0406677 -0.0393398 -0.038938
190.0 -0.0270592 -0.0556637 -0.0286045 0.0413615 0.000772633 -0.0421341 0.0234651 -0.010795 -0.0324688 -0.0412495 -0.0399919 -0.0396233
191.0 -0.0274204 -0.056489 -0.0290686 0.0419547 0.000824091 -0.0427788 0.0244105 -0.0104383 -0.0327239 -0.0418233 -0.0406364 -0.0403014
192.0 -0.0277781 -0.0573076 -0.0295296 0.0425428 0.000875743 -0.0434186 0.0253654 -0.0100755 -0.0329714 -0.0423891 -0.0412739 -0.0409727
193.0 -0.0281324 -0.0581193 -0.0299869 0.0431259 0.000927218 -0.0440531 0.0263297 -0.00970673 -0.0332114 -0.0429469 -0.0419041 -0.0416374
194.0 -0.0284833 -0.0589248 -0.0304416 0.043704 0.00097916 -0.0446832 0.0273035 -0.00933222 -0.0334442 -0.0434974 -0.0425278 -0.0422959
195.0 -0.0288313 -0.0597245 -0.0308932 0.0442779 0.00103093 -0.0453088 0.0282876 -0.00895099 -0.0336697 -0.0440408 -0.0431453 -0.0429487
196.0 -0.0291764 -0.0605181 -0.0313417 0.0448473 0.00108267 -0.0459299 0.0292811 -0.00856433 -0.0338887 -0.044577 -0.0437565 -0.0435957
197.0 -0.0295189 -0.0613061 -0.0317872 0.0454125 0.00113417 -0.0465467 0.0302853 -0.00817073 -0.0341003 -0.0451064 -0.0443618 -0.0442372
198.0 -0.0298591 -0.0620893 -0.0322302 0.0459742 0.00118556 -0.0471597 0.0312984 -0.00777235 -0.0343067 -0.0456302 -0.0449621 -0.044874
199.0 -0.0301972 -0.0628674 -0.0326702 0.0465323 0.00123653 -0.0477688 0.0323213 -0.0073681 -0.0345072 -0.0461481 -0.0455574 -0.0455061
200.0 -0.0305334 -0.0636409 -0.0331075 0.0470871 0.00128708 -0.0483742 0.033354 -0.00695784 -0.0347017 -0.0466603 -0.0461476 -0.0461337
201.0 -0.0308677 -0.0644102 -0.0335425 0.047639 0.00133738 -0.0489764 0.0343959 -0.00654167 -0.0348904 -0.0471671 -0.0467336 -0.0467575
202.0 -0.0312007 -0.0651758 -0.0339751 0.0481882 0.00138722 -0.0495755 0.0354469 -0.00612009 -0.0350742 -0.0476693 -0.0473156 -0.0473776
203.0 -0.0315322 -0.065938 -0.0344058 0.0487351 0.00143677 -0.0501719 0.0365063 -0.00569306 -0.0352531 -0.0481671 -0.0478941 -0.0479945
204.0 -0.0318628 -0.066697 -0.0348342 0.0492799 0.00148572 -0.0507656 0.0375736 -0.00526104 -0.0354278 -0.0486609 -0.0484692 -0.0486085
205.0 -0.0321924 -0.0674529 -0.0352605 0.0498226 0.00153408 -0.0513567 0.0386485 -0.00482428 -0.0355982 -0.0491508 -0.0490412 -0.0492196
206.0 -0.0325212 -0.0682061 -0.0356849 0.0503637 0.00158182 -0.0519455 0.0397303 -0.00438281 -0.0357649 -0.0496374 -0.0496104 -0.0498282
207.0 -0.0328495 -0.0689569 -0.0361073 0.0509032 0.00162891 -0.0525321 0.0408184 -0.00393696 -0.035928 -0.0501208 -0.0501771 -0.0504346
208.0 -0.0331775 -0.0697053 -0.0365278 0.0514414 0.00167515 -0.0531166 0.0419122 -0.00348703 -0.0360881 -0.0506015 -0.0507418 -0.0510392
209.0 -0.0335052 -0.0704521 -0.0369469 0.0519787 0.00172084 -0.0536995 0.0430106 -0.00303359 -0.0362456 -0.05108 -0.0513047 -0.0516422
210.0 -0.0338329 -0.071197 -0.0373641 0.052515 0.00176561 -0.0542806 0.0441132 -0.00257631 -0.0364002 -0.0515561 -0.0518658 -0.0522438
211.0 -0.0341607 -0.0719401 -0.0377795 0.0530504 0.0018094 -0.0548598 0.0452193 -0.00211596 -0.0365528 -0.0520304 -0.0524255 -0.0528439
212.0 -0.0344886 -0.0726817 -0.0381932 0.0535852 0.00185231 -0.0554375 0.0463277 -0.00165265 -0.0367033 -0.0525029 -0.0529839 -0.0534429
213.0 -0.0348168 -0.0734218 -0.038605 0.0541193 0.00189413 -0.0560134 0.0474376 -0.00118689 -0.0368522 -0.0529741 -0.0535412 -0.0540409
214.0 -0.0351453 -0.0741605 -0.0390152 0.0546529 0.00193494 -0.0565879 0.0485484 -0.000718788 -0.0369996 -0.0534439 -0.0540975 -0.0546381
215.0 -0.0354743 -0.0748977 -0.0394234 0.055186 0.0019745 -0.0571605 0.0496589 -0.000248729 -0.0371458 -0.0539125 -0.0546529 -0.0552344
216.0 -0.0358038 -0.0756333 -0.0398295 0.0557186 0.00201284 -0.0577314 0.0507686 0.000223129 -0.0372907 -0.0543799 -0.0552073 -0.0558297
217.0 -0.0361337 -0.0763674 -0.0402337 0.0562506 0.00204999 -0.0583006 0.0518758 0.00069596 -0.0374352 -0.0548468 -0.0557612 -0.0564245
218.0 -0.0364642 -0.0770997 -0.0406355 0.056782 0.00208564 -0.0588676 0.0529802 0.00116996 -0.0375788 -0.0553126 -0.0563143 -0.0570185
219.0 -0.0367951 -0.0778302 -0.0410351 0.0573127 0.00211999 -0.0594327 0.0540806 0.00164459 -0.0377219 -0.0557777 -0.0568665 -0.0576115
220.0 -0.0371264 -0.0785585 -0.041432 0.0578424 0.00215281 -0.0599952 0.0551762 0.00211972 -0.0378644 -0.0562419 -0.0574179 -0.0582036
221.0 -0.0374582 -0.0792842 -0.041826 0.0583712 0.00218391 -0.0605551 0.0562659 0.00259497 -0.0380066 -0.056705 -0.0579685 -0.0587947
222.0 -0.0377901 -0.0800074 -0.0422173 0.0588987 0.00221357 -0.0611123 0.0573486 0.00306988 -0.0381486 -0.0571676 -0.0585181 -0.0593846
223.0 -0.0381222 -0.0807274 -0.0426052 0.0594248 0.00224148 -0.0616663 0.0584237 0.00354418 -0.0382904 -0.0576289 -0.0590664 -0.0599731
224.0 -0.0384543 -0.0814439 -0.0429896 0.0599491 0.00226762 -0.0622167 0.0594902 0.00401808 -0.0384316 -0.058089 -0.0596133 -0.06056
225.0 -0.0387863 -0.0821565 -0.0433702 0.0604714 0.00229198 -0.0627634 0.0605471 0.00449067 -0.0385727 -0.0585479 -0.0601586 -0.0611451
226.0 -0.0391179 -0.0828648 -0.0437469 0.0609914 0.00231447 -0.0633058 0.0615934 0.00496208 -0.0387135 -0.0590053 -0.0607021 -0.0617282
227.0 -0.0394491 -0.0835681 -0.0441191 0.0615086 0.00233502 -0.0638436 0.0626283 0.00543179 -0.038854 -0.0594608 -0.0612436 -0.0623087
228.0 -0.0397794 -0.0842661 -0.0444867 0.0620228 0.00235366 -0.0643764 0.0636506 0.00589953 -0.038994 -0.0599145 -0.0617829 -0.0628869
229.0 -0.0401087 -0.0849581 -0.0448493 0.0625334 0.0023703 -0.0649037 0.0646599 0.00636502 -0.0391338 -0.0603661 -0.0623194 -0.0634619
230.0 -0.0404368 -0.0856434 -0.0452066 0.0630401 0.00238487 -0.065425 0.0656552 0.00682832 -0.0392727 -0.060815 -0.0628529 -0.0640335
231.0 -0.0407634 -0.0863216 -0.0455583 0.0635425 0.00239744 -0.0659399 0.0666352 0.00728856 -0.0394111 -0.0612614 -0.0633833 -0.0646016
232.0 -0.0410881 -0.0869919 -0.0459038 0.06404 0.00240787 -0.0664479 0.0675997 0.00774582 -0.0395486 -0.0617045 -0.0639097 -0.0651653
233.0 -0.0414107 -0.0876539 -0.0462432 0.0645323 0.00241629 -0.0669486 0.0685475 0.0081998 -0.0396852 -0.0621444 -0.0644323 -0.0657246
234.0 -0.0417308 -0.0883067 -0.0465759 0.0650187 0.00242257 -0.0674413 0.0694781 0.00865016 -0.0398207 -0.0625802 -0.0649503 -0.0662789
235.0 -0.0420482 -0.0889497 -0.0469015 0.0654989 0.00242667 -0.0679256 0.0703904 0.00909659 -0.0399552 -0.063012 -0.0654634 -0.0668277
236.0 -0.0423624 -0.0895823 -0.0472199 0.0659723 0.00242873 -0.0684011 0.0712837 0.00953846 -0.0400883 -0.0634395 -0.0659713 -0.0673709
237.0 -0.0426733 -0.0902038 -0.0475305 0.0664386 0.00242861 -0.0688672 0.0721575 0.00997596 -0.0402198 -0.063862 -0.0664734 -0.0679077
238.0 -0.0429804 -0.0908136 -0.0478332 0.066897 0.00242638 -0.0693234 0.073011 0.0104085 -0.0403496 -0.0642793 -0.0669695 -0.0684378
239.0 -0.0432834 -0.0914108 -0.0481274 0.0673471 0.00242199 -0.0697691 0.0738435 0.0108358 -0.0404779 -0.0646912 -0.0674589 -0.0689607
240.0 -0.043582 -0.0919951 -0.0484132 0.0677885 0.00241559 -0.0702041 0.0746544 0.0112576 -0.0406039 -0.0650969 -0.0679413 -0.0694759
241.0 -0.0438758 -0.0925657 -0.0486899 0.0682207 0.00240703 -0.0706278 0.0754432 0.0116734 -0.040728 -0.0654963 -0.0684162 -0.069983
242.0 -0.0441645 -0.0931219 -0.0489573 0.0686432 0.0023964 -0.0710396 0.076209 0.0120831 -0.0408498 -0.0658889 -0.0688832 -0.0704814
243.0 -0.0444478 -0.0936632 -0.0492154 0.0690555 0.0023838 -0.0714393 0.0769516 0.0124861 -0.0409691 -0.0662744 -0.0693418 -0.0709707
244.0 -0.0447254 -0.0941891 -0.0494638 0.0694572 0.00236921 -0.0718265 0.0776704 0.0128825 -0.0410858 -0.0666524 -0.0697916 -0.0714504
245.0 -0.0449968 -0.094699 -0.0497021 0.0698479 0.00235265 -0.0722006 0.0783649 0.0132714 -0.0412 -0.0670226 -0.0702322 -0.0719204
246.0 -0.045262 -0.0951923 -0.0499303 0.0702271 0.00233419 -0.0725613 0.0790347 0.0136529 -0.0413112 -0.0673846 -0.0706632 -0.0723798
247.0 -0.0455204 -0.0956687 -0.0501483 0.0705945 0.00231392 -0.0729085 0.0796792 0.0140266 -0.0414194 -0.0677378 -0.0710842 -0.0728283
248.0 -0.0457719 -0.0961275 -0.0503556 0.0709497 0.00229184 -0.0732415 0.0802984 0.0143919 -0.0415247 -0.0680822 -0.0714946 -0.0732656
249.0 -0.0460161 -0.0965685 -0.0505524 0.0712923 0.00226812 -0.0735604 0.080892 0.014749 -0.0416265 -0.0684171 -0.0718942 -0.073691
250.0 -0.0462529 -0.0969913 -0.0507383 0.0716221 0.00224271 -0.0738648 0.0814592 0.0150975 -0.0417249 -0.0687426 -0.0722824 -0.0741044
251.0 -0.0464819 -0.0973953 -0.0509134 0.0719386 0.00221572 -0.0741544 0.0820005 0.0154369 -0.0418197 -0.0690581 -0.0726592 -0.0745054
252.0 -0.0467029 -0.0977806 -0.0510776 0.0722417 0.00218735 -0.0744291 0.0825152 0.0157671 -0.041911 -0.0693634 -0.0730239 -0.0748935
253.0 -0.0469157 -0.0981464 -0.0512307 0.0725311 0.0021575 -0.0746886 0.0830031 0.0160876 -0.0419985 -0.0696582 -0.0733764 -0.0752682
254.0 -0.0471201 -0.098493 -0.0513729 0.0728065 0.00212641 -0.0749329 0.0834647 0.0163984 -0.042082 -0.0699421 -0.0737162 -0.0756295
255.0 -0.0473158 -0.0988198 -0.051504 0.0730678 0.00209412 -0.0751619 0.0838993 0.0166996 -0.0421614 -0.0702149 -0.0740431 -0.0759771
256.0 -0.0475028 -0.099127 -0.0516241 0.0733149 0.00206067 -0.0753755 0.0843071 0.0169905 -0.0422369 -0.0704766 -0.0743567 -0.0763104
257.0 -0.0476808 -0.0994141 -0.0517333 0.0735474 0.00202624 -0.0755737 0.0846883 0.0172709 -0.0423081 -0.0707265 -0.074657 -0.0766295
258.0 -0.0478497 -0.0996812 -0.0518315 0.0737655 0.0019909 -0.0757564 0.0850432 0.0175413 -0.0423749 -0.0709646 -0.0749432 -0.0769335
259.0 -0.0480093 -0.0999282 -0.0519188 0.0739687 0.00195476 -0.0759235 0.0853712 0.0178007 -0.0424372 -0.0711911 -0.075216 -0.0772231
260.0 -0.0481597 -0.100155 -0.0519954 0.0741574 0.00191786 -0.0760753 0.085673 0.0180497 -0.0424953 -0.0714051 -0.0754743 -0.0774973
261.0 -0.0483006 -0.100362 -0.0520613 0.0743313 0.00188038 -0.0762116 0.0859488 0.0182879 -0.0425485 -0.0716068 -0.0757184 -0.0777564
262.0 -0.048432 -0.100549 -0.0521167 0.0744904 0.00184234 -0.0763327 0.0861985 0.0185151 -0.0425973 -0.0717963 -0.0759481 -0.0780001
263.0 -0.0485538 -0.100715 -0.0521616 0.0746346 0.00180386 -0.0764385 0.0864229 0.0187319 -0.042641 -0.071973 -0.076163 -0.0782282
264.0 -0.048666 -0.100862 -0.0521961 0.0747641 0.00176504 -0.0765291 0.0866219 0.0189376 -0.0426801 -0.072137 -0.0763632 -0.0784406
265.0 -0.0487686 -0.100989 -0.0522205 0.0748789 0.00172594 -0.0766048 0.0867958 0.0191324 -0.0427144 -0.0722884 -0.0765486 -0.0786373
266.0 -0.0488615 -0.101096 -0.0522348 0.074979 0.00168665 -0.0766656 0.0869453 0.0193164 -0.0427437 -0.0724268 -0.0767191 -0.0788181
267.0 -0.0489449 -0.101184 -0.0522392 0.0750645 0.00164719 -0.0767117 0.0870706 0.0194897 -0.042768 -0.0725524 -0.0768746 -0.0789831
268.0 -0.0490185 -0.101252 -0.0522339 0.0751355 0.00160769 -0.0767432 0.0871727 0.0196522 -0.042787 -0.0726648 -0.0770148 -0.079132
269.0 -0.0490826 -0.101302 -0.052219 0.0751921 0.00156821 -0.0767603 0.0872512 0.0198045 -0.042801 -0.0727643 -0.0771402 -0.0792652
270.0 -0.0491371 -0.101332 -0.0521946 0.0752345 0.00152875 -0.0767632 0.087307 0.0199457 -0.0428098 -0.0728507 -0.0772506 -0.0793824
271.0 -0.0491823 -0.101343 -0.0521609 0.0752627 0.00148932 -0.0767521 0.0873407 0.0200769 -0.0428137 -0.0729242 -0.0773463 -0.0794839
272.0 -0.0492179 -0.101336 -0.0521182 0.075277 0.00145014 -0.0767271 0.087353 0.020198 -0.042812 -0.0729847 -0.0774265 -0.0795695
273.0 -0.0492444 -0.101311 -0.0520664 0.0752775 0.00141101 -0.0766885 0.0873442 0.0203089 -0.0428049 -0.0730321 -0.077492 -0.0796394
274.0 -0.0492615 -0.101267 -0.0520057 0.0752643 0.00137214 -0.0766365 0.0873151 0.0204103 -0.0427927 -0.0730664 -0.0775426 -0.0796935
275.0 -0.0492695 -0.101206 -0.0519364 0.0752377 0.00133345 -0.0765712 0.087266 0.0205019 -0.042775 -0.0730879 -0.0775784 -0.0797321
276.0 -0.0492686 -0.101127 -0.0518585 0.0751978 0.00129496 -0.0764928 0.0871978 0.0205843 -0.042752 -0.0730966 -0.0775996 -0.0797553
277.0 -0.0492587 -0.101031 -0.0517722 0.0751448 0.00125673 -0.0764015 0.0871112 0.0206578 -0.0427233 -0.0730923 -0.077606 -0.0797631
278.0 -0.0492401 -0.100918 -0.0516776 0.0750789 0.00121874 -0.0762977 0.0870064 0.0207217 -0.0426896 -0.0730757 -0.0775983 -0.079756
279.0 -0.0492129 -0.100788 -0.0515747 0.0750002 0.00118092 -0.0761812 0.0868843 0.0207776 -0.04265 -0.0730463 -0.0775761 -0.0797337
280.0 -0.0491771 -0.100641 -0.0514639 0.074909 0.00114339 -0.0760524 0.0867455 0.0208253 -0.0426049 -0.0730041 -0.0775397 -0.0796963
281.0 -0.049133 -0.100478 -0.0513451 0.0748055 0.00110605 -0.0759115 0.0865907 0.0208647 -0.0425544 -0.0729498 -0.0774893 -0.0796446
282.0 -0.0490806 -0.100299 -0.0512184 0.0746898 0.00106889 -0.0757587 0.0864205 0.0208967 -0.042498 -0.0728829 -0.0774249 -0.0795781
283.0 -0.0490202 -0.100104 -0.0510841 0.0745622 0.00103196 -0.0755942 0.0862356 0.0209215 -0.042436 -0.0728037 -0.0773467 -0.0794973
284.0 -0.0489517 -0.0998938 -0.0509421 0.0744228 0.000995196 -0.075418 0.0860364 0.0209391 -0.0423683 -0.0727124 -0.0772551 -0.0794025
285.0 -0.0488755 -0.099668 -0.0507926 0.0742718 0.000958536 -0.0752303 0.0858236 0.0209501 -0.042295 -0.0726094 -0.0771501 -0.0792936
286.0 -0.0487916 -0.0994272 -0.0506356 0.0741094 0.000921989 -0.0750314 0.085598 0.0209548 -0.0422158 -0.072494 -0.0770317 -0.0791709
287.0 -0.0487001 -0.0991713 -0.0504712 0.0739357 0.000885549 -0.0748212 0.0853598 0.0209536 -0.0421309 -0.072367 -0.0769004 -0.0790346
288.0 -0.0486011 -0.0989007 -0.0502996 0.0737509 0.000849244 -0.0746002 0.0851096 0.0209465 -0.04204 -0.0722284 -0.0767562 -0.0788851
289.0 -0.048495 -0.0986156 -0.0501206 0.0735553 0.000812848 -0.0743681 0.0848483 0.0209342 -0.0419435 -0.0720782 -0.0765994 -0.0787226
290.0 -0.0483815 -0.0983162 -0.0499346 0.0733488 0.000776568 -0.0741254 0.0845761 0.0209171 -0.0418407 -0.0719166 -0.07643 -0.0785468
291.0 -0.048261 -0.0980025 -0.0497415 0.0731318 0.00074021 -0.073872 0.0842934 0.0208952 -0.0417323 -0.0717435 -0.0762481 -0.0783582
292.0 -0.0481336 -0.0976749 -0.0495413 0.0729043 0.000703819 -0.0736081 0.084001 0.0208695 -0.0416179 -0.0715594 -0.0760542 -0.0781572
293.0 -0.0479993 -0.0973335 -0.0493341 0.0726664 0.000667422 -0.0733338 0.0836987 0.0208393 -0.0414973 -0.0713641 -0.0758481 -0.0779438
294.0 -0.0478583 -0.0969782 -0.04912 0.0724182 0.000630865 -0.0730491 0.0833877 0.0208058 -0.0413706 -0.0711579 -0.0756302 -0.0777179
295.0 -0.0477106 -0.0966095 -0.0488989 0.07216 0.000594175 -0.0727542 0.0830678 0.0207692 -0.0412379 -0.0709405 -0.0754007 -0.0774803
296.0 -0.0475563 -0.0962273 -0.0486709 0.0718918 0.000557296 -0.0724491 0.0827394 0.0207292 -0.0410991 -0.0707127 -0.0751597 -0.0772307
297.0 -0.0473956 -0.0958317 -0.0484361 0.0716136 0.000520298 -0.0721339 0.082403 0.0206865 -0.0409542 -0.0704741 -0.0749074 -0.0769696
298.0 -0.0472284 -0.095423 -0.0481945 0.0713257 0.000483041 -0.0718088 0.0820588 0.0206415 -0.0408031 -0.070225 -0.0746438 -0.0766969
299.0 -0.047055 -0.0950012 -0.0479462 0.0710281 0.000445616 -0.0714737 0.0817067 0.0205945 -0.0406459 -0.0699655 -0.0743692 -0.0764129
300.0 -0.0468753 -0.0945663 -0.0476911 0.0707208 0.000407916 -0.0711287 0.0813475 0.0205451 -0.0404827 -0.0696958 -0.0740838 -0.0761179
301.0 -0.0466893 -0.0941186 -0.0474293 0.070404 0.000369994 -0.0707739 0.080981 0.0204944 -0.040313 -0.0694158 -0.0737876 -0.0758119
302.0 -0.0464973 -0.093658 -0.0471607 0.0700776 0.000331719 -0.0704094 0.0806074 0.0204422 -0.0401372 -0.0691258 -0.0734809 -0.075495
303.0 -0.0462991 -0.0931848 -0.0468857 0.069742 0.000293273 -0.0700352 0.0802267 0.0203884 -0.0399554 -0.0688258 -0.0731639 -0.0751677
304.0 -0.046095 -0.0926989 -0.0466039 0.0693969 0.000254486 -0.0696514 0.0798393 0.020334 -0.0397672 -0.0685161 -0.0728365 -0.0748298
305.0 -0.0458848 -0.0922004 -0.0463156 0.0690426 0.000215381 -0.069258 0.0794451 0.0202785 -0.039573 -0.0681965 -0.072499 -0.0744816
306.0 -0.0456688 -0.0916896 -0.0460208 0.0686792 0.000176025 -0.0688552 0.0790442 0.0202223 -0.0393726 -0.0678674 -0.0721516 -0.0741233
307.0 -0.0454468 -0.0911663 -0.0457195 0.0683066 0.000136351 -0.0684429 0.0786362 0.0201654 -0.0391659 -0.0675288 -0.0717944 -0.073755
308.0 -0.0452189 -0.0906308 -0.0454118 0.0679249 9.64482e-05 -0.0680213 0.0782216 0.020108 -0.0389535 -0.0671808 -0.0714276 -0.0733769
309.0 -0.0449853 -0.0900831 -0.0450979 0.0675342 5.62947e-05 -0.0675905 0.0778001 0.0200503 -0.038735 -0.0668237 -0.0710513 -0.0729893
310.0 -0.0447458 -0.0895234 -0.0447776 0.0671346 1.58609e-05 -0.0671505 0.0773719 0.0199922 -0.0385103 -0.0664575 -0.0706657 -0.0725921
311.0 -0.0445006 -0.0889517 -0.0444511 0.0667261 -2.47741e-05 -0.0667014 0.0769364 0.0199339 -0.03828 -0.0660823 -0.0702707 -0.0721855
312.0 -0.0442497 -0.0883681 -0.0441184 0.0663089 -6.56201e-05 -0.0662432 0.0764942 0.0198752 -0.0380437 -0.0656983 -0.0698667 -0.0717697
313.0 -0.043993 -0.0877728 -0.0437798 0.0658829 -0.000106577 -0.0657763 0.0760443 0.0198165 -0.0378016 -0.0653055 -0.0694539 -0.0713448
314.0 -0.0437306 -0.0871659 -0.0434353 0.0654482 -0.000147668 -0.0653006 0.0755874 0.0197575 -0.0375536 -0.0649042 -0.0690323 -0.0709111
315.0 -0.0434626 -0.0865475 -0.0430849 0.065005 -0.000188849 -0.0648162 0.075123 0.0196981 -0.0373004 -0.0644946 -0.0686022 -0.0704687
316.0 -0.043189 -0.0859178 -0.0427288 0.0645534 -0.000230078 -0.0643233 0.0746509 0.0196386 -0.0370414 -0.0640764 -0.0681634 -0.0700176
317.0 -0.0429097 -0.0852769 -0.0423672 0.0640933 -0.000271218 -0.0638221 0.0741709 0.0195787 -0.0367771 -0.0636505 -0.0677166 -0.0695583
318.0 -0.0426249 -0.0846251 -0.0420002 0.063625 -0.000312367 -0.0633126 0.0736831 0.0195186 -0.0365076 -0.0632164 -0.0672614 -0.0690905
319.0 -0.0423346 -0.0839623 -0.0416277 0.0631484 -0.000353414 -0.062795 0.0731869 0.0194578 -0.0362328 -0.0627746 -0.0667983 -0.0686147
320.0 -0.0420387 -0.083289 -0.0412503 0.0626638 -0.000394196 -0.0622696 0.0726829 0.0193967 -0.0359529 -0.062325 -0.0663274 -0.0681309
321.0 -0.0417374 -0.0826052 -0.0408678 0.0621713 -0.0004348 -0.0617365 0.0721699 0.0193347 -0.0356682 -0.0618683 -0.0658489 -0.0676394
322.0 -0.0414307 -0.0819111 -0.0404804 0.0616709 -0.000475117 -0.0611958 0.0716486 0.0192721 -0.0353788 -0.0614039 -0.0653628 -0.0671402
323.0 -0.0411186 -0.0812071 -0.0400885 0.0611628 -0.000515032 -0.0606478 0.0711185 0.0192085 -0.0350845 -0.0609324 -0.0648693 -0.0666333
324.0 -0.0408011 -0.0804932 -0.0396921 0.0606471 -0.000554474 -0.0600927 0.0705791 0.0191437 -0.0347859 -0.0604541 -0.0643687 -0.0661194
325.0 -0.0404784 -0.0797697 -0.0392913 0.060124 -0.000593508 -0.0595305 0.070031 0.0190777 -0.034483 -0.0599689 -0.0638609 -0.0655981
326.0 -0.0401503 -0.0790369 -0.0388866 0.0595936 -0.000631877 -0.0589618 0.0694738 0.0190105 -0.0341757 -0.059477 -0.0633463 -0.0650699
327.0 -0.0398172 -0.0782952 -0.038478 0.0590562 -0.000669612 -0.0583866 0.068907 0.0189415 -0.0338645 -0.0589787 -0.062825 -0.0645348
328.0 -0.039479 -0.0775446 -0.0380656 0.0585118 -0.000706665 -0.0578051 0.0683308 0.0188708 -0.0335495 -0.0584741 -0.0622971 -0.0639931
329.0 -0.0391356 -0.0767855 -0.0376499 0.0579606 -0.000742887 -0.0572177 0.0677453 0.0187981 -0.0332308 -0.0579635 -0.0617628 -0.0634447
330.0 -0.0387873 -0.0760182 -0.0372309 0.0574028 -0.000778189 -0.0566246 0.0671499 0.0187231 -0.0329086 -0.0574471 -0.0612225 -0.0628901
331.0 -0.0384341 -0.075243 -0.0368089 0.0568385 -0.000812625 -0.0560259 0.0665452 0.0186462 -0.032583 -0.0569247 -0.0606758 -0.062329
332.0 -0.0380761 -0.0744602 -0.0363841 0.0562681 -0.000845994 -0.0554222 0.0659308 0.0185664 -0.0322543 -0.0563968 -0.0601235 -0.0617622
333.0 -0.0377133 -0.0736701 -0.0359568 0.0556917 -0.000878287 -0.0548134 0.0653066 0.018484 -0.0319226 -0.0558634 -0.0595652 -0.0611892
334.0 -0.037346 -0.072873 -0.0355271 0.0551095 -0.000909452 -0.0542 0.0646729 0.0183987 -0.0315882 -0.0553253 -0.0590015 -0.0606106
335.0 -0.0369741 -0.0720695 -0.0350954 0.0545218 -0.000939332 -0.0535824 0.0640296 0.0183103 -0.0312511 -0.0547818 -0.0584323 -0.0600265
336.0 -0.0365978 -0.0712596 -0.0346619 0.0539287 -0.000967947 -0.0529607 0.0633767 0.0182185 -0.0309116 -0.0542338 -0.057858 -0.0594371
337.0 -0.0362171 -0.0704438 -0.0342267 0.0533304 -0.000995159 -0.0523353 0.0627146 0.0181234 -0.0305699 -0.053681 -0.0572786 -0.0588423
338.0 -0.0358322 -0.0696225 -0.0337902 0.0527273 -0.00102099 -0.0517064 0.0620431 0.0180247 -0.0302259 -0.0531239 -0.0566943 -0.0582426
339.0 -0.0354434 -0.0687959 -0.0333525 0.0521197 -0.00104542 -0.0510742 0.0613625 0.0179221 -0.0298803 -0.0525624 -0.0561054 -0.0576379
340.0 -0.0350505 -0.0679646 -0.0329141 0.0515076 -0.00106822 -0.0504394 0.0606728 0.0178155 -0.029533 -0.0519972 -0.055512 -0.0570287
341.0 -0.034654 -0.0671288 -0.0324749 0.0508914 -0.00108956 -0.0498019 0.0599747 0.017705 -0.0291839 -0.0514279 -0.054914 -0.0564147
342.0 -0.0342537 -0.066289 -0.0320353 0.0502714 -0.00110924 -0.0491621 0.0592678 0.0175903 -0.0288335 -0.0508551 -0.0543121 -0.0557966
343.0 -0.03385 -0.0654456 -0.0315955 0.0496478 -0.00112726 -0.0485205 0.0585527 0.0174713 -0.0284819 -0.0502789 -0.0537061 -0.0551743
344.0 -0.033443 -0.0645988 -0.0311558 0.0490209 -0.00114363 -0.0478773 0.05783 0.0173477 -0.0281295 -0.0496995 -0.0530965 -0.0545481
345.0 -0.0330328 -0.0637491 -0.0307163 0.048391 -0.00115824 -0.0472327 0.0570994 0.0172198 -0.0277761 -0.0491171 -0.0524832 -0.0539182
346.0 -0.0326196 -0.0628969 -0.0302773 0.0477583 -0.00117118 -0.0465871 0.0563614 0.0170871 -0.0274221 -0.0485318 -0.0518666 -0.0532847
347.0 -0.0322037 -0.0620427 -0.029839 0.0471232 -0.00118236 -0.0459408 0.0556165 0.0169499 -0.0270675 -0.047944 -0.0512466 -0.0526478
348.0 -0.0317852 -0.0611866 -0.0294015 0.0464859 -0.00119185 -0.0452941 0.0548653 0.0168082 -0.0267125 -0.0473536 -0.0506238 -0.0520076
349.0 -0.0313642 -0.0603294 -0.0289652 0.0458468 -0.00119948 -0.0446473 0.0541078 0.0166618 -0.0263572 -0.0467612 -0.0499981 -0.0513648
350.0 -0.030941 -0.0594712 -0.0285302 0.0452061 -0.00120538 -0.0440007 0.0533445 0.0165106 -0.0260019 -0.0461668 -0.04937 -0.0507191
351.0 -0.0305157 -0.0586123 -0.0280966 0.044564 -0.00120954 -0.0433545 0.0525759 0.0163547 -0.0256468 -0.0455705 -0.0487393 -0.0500708
352.0 -0.0300887 -0.0577534 -0.0276647 0.043921 -0.001212 -0.042709 0.0518029 0.0161945 -0.0252917 -0.0449726 -0.0481064 -0.0494202
353.0 -0.02966 -0.0568947 -0.0272346 0.0432773 -0.00121271 -0.0420646 0.0510252 0.0160294 -0.024937 -0.0443734 -0.0474717 -0.0487676
354.0 -0.02923 -0.0560366 -0.0268066 0.0426333 -0.00121173 -0.0414216 0.0502437 0.0158597 -0.0245828 -0.0437731 -0.0468353 -0.0481131
355.0 -0.0287988 -0.0551796 -0.0263807 0.0419892 -0.00120905 -0.0407802 0.0494592 0.0156859 -0.0242292 -0.0431716 -0.0461973 -0.0474569
356.0 -0.0283667 -0.0543239 -0.0259572 0.0413453 -0.00120479 -0.0401405 0.0486719 0.0155077 -0.0238763 -0.0425696 -0.0455581 -0.0467995
357.0 -0.0279339 -0.05347 -0.0255361 0.040702 -0.00119893 -0.039503 0.0478821 0.0153252 -0.0235245 -0.0419671 -0.0449178 -0.0461408
358.0 -0.0275006 -0.0526182 -0.0251176 0.0400594 -0.00119147 -0.0388679 0.0470905 0.0151383 -0.0231734 -0.0413641 -0.0442767 -0.0454812
359.0 -0.027067 -0.051769 -0.024702 0.039418 -0.00118253 -0.0382355 0.046298 0.0149479 -0.0228235 -0.0407613 -0.043635 -0.044821
360.0 -0.0266334 -0.0509226 -0.0242892 0.038778 -0.00117211 -0.0376059 0.0455047 0.0147534 -0.0224748 -0.0401584 -0.042993 -0.0441604
361.0 -0.0262001 -0.0500795 -0.0238794 0.0381398 -0.00116032 -0.0369794 0.0447114 0.0145554 -0.0221274 -0.039556 -0.0423509 -0.0434996
362.0 -0.0257672 -0.04924 -0.0234728 0.0375036 -0.00114719 -0.0363564 0.0439187 0.0143537 -0.0217816 -0.0389541 -0.041709 -0.042839
363.0 -0.0253349 -0.0484044 -0.0230694 0.0368696 -0.00113276 -0.0357369 0.0431269 0.014149 -0.0214371 -0.0383531 -0.0410675 -0.0421787
364.0 -0.0249037 -0.0475731 -0.0226694 0.0362384 -0.00111717 -0.0351212 0.0423366 0.0139409 -0.0210946 -0.0377532 -0.0404268 -0.0415191
365.0 -0.0244735 -0.0467463 -0.0222728 0.0356099 -0.00110036 -0.0345096 0.0415486 0.0137301 -0.0207537 -0.0371546 -0.0397869 -0.0408605
366.0 -0.0240448 -0.0459245 -0.0218797 0.0349846 -0.00108258 -0.0339021 0.0407632 0.0135167 -0.0204145 -0.0365573 -0.0391482 -0.0402029
367.0 -0.0236177 -0.045108 -0.0214903 0.0343629 -0.00106372 -0.0332991 0.039981 0.0133007 -0.0200774 -0.0359619 -0.0385111 -0.0395469
368.0 -0.0231925 -0.044297 -0.0211045 0.0337448 -0.00104396 -0.0327008 0.0392025 0.0130826 -0.0197423 -0.0353685 -0.0378756 -0.0388925
369.0 -0.0227693 -0.043492 -0.0207226 0.0331306 -0.00102333 -0.0321073 0.0384283 0.0128625 -0.0194093 -0.0347773 -0.0372421 -0.0382403
370.0 -0.0223485 -0.042693 -0.0203445 0.0325208 -0.00100197 -0.0315188 0.037659 0.0126408 -0.0190785 -0.0341884 -0.0366108 -0.0375902
371.0 -0.0219301 -0.0419007 -0.0199705 0.0319154 -0.000979813 -0.0309356 0.0368947 0.0124173 -0.0187503 -0.0336024 -0.0359822 -0.0369429
372.0 -0.0215146 -0.041115 -0.0196004 0.0313148 -0.000957112 -0.0303577 0.0361362 0.0121928 -0.0184243 -0.0330192 -0.0353562 -0.0362983
373.0 -0.021102 -0.0403363 -0.0192343 0.0307192 -0.000933844 -0.0297853 0.0353839 0.0119672 -0.018101 -0.0324391 -0.0347334 -0.0356569
374.0 -0.0206926 -0.039565 -0.0188724 0.0301288 -0.000910108 -0.0292187 0.0346381 0.0117408 -0.01778 -0.0318624 -0.0341138 -0.0350188
375.0 -0.0202865 -0.0388011 -0.0185146 0.0295438 -0.000885982 -0.0286578 0.0338995 0.0115139 -0.017462 -0.0312893 -0.033498 -0.0343845
376.0 -0.019884 -0.0380451 -0.0181611 0.0289646 -0.000861494 -0.0281031 0.0331685 0.011287 -0.0171465 -0.03072 -0.0328858 -0.0337541
377.0 -0.0194854 -0.0372971 -0.0178117 0.0283912 -0.000836833 -0.0275544 0.0324451 0.0110598 -0.016834 -0.0301546 -0.0322778 -0.0331279
378.0 -0.0190906 -0.0365573 -0.0174668 0.0278239 -0.000811905 -0.027012 0.0317302 0.010833 -0.0165243 -0.0295936 -0.0316742 -0.0325063
379.0 -0.0186999 -0.0358261 -0.0171262 0.027263 -0.000786888 -0.0264761 0.0310236 0.0106063 -0.0162178 -0.0290371 -0.0310752 -0.0318894
380.0 -0.0183135 -0.0351035 -0.01679 0.0267085 -0.000761791 -0.0259467 0.0303263 0.0103806 -0.0159143 -0.0284853 -0.0304811 -0.0312776
381.0 -0.0179317 -0.0343898 -0.0164581 0.0261607 -0.000736756 -0.025424 0.029638 0.0101557 -0.0156139 -0.0279383 -0.0298921 -0.030671
382.0 -0.0175543 -0.0336852 -0.0161308 0.0256197 -0.000711757 -0.024908 0.0289594 0.009932 -0.0153167 -0.0273964 -0.0293083 -0.0300699
383.0 -0.0171817 -0.0329897 -0.015808 0.0250857 -0.000686885 -0.0243988 0.0282904 0.00970933 -0.0150229 -0.0268599 -0.0287303 -0.0294747
384.0 -0.0168141 -0.0323038 -0.0154897 0.024559 -0.000662228 -0.0238967 0.0276316 0.00948832 -0.0147325 -0.0263288 -0.028158 -0.0288854
385.0 -0.0164514 -0.0316273 -0.0151759 0.0240394 -0.000637755 -0.0234016 0.0269832 0.00926921 -0.0144454 -0.0258034 -0.0275917 -0.0283023
386.0 -0.0160939 -0.0309606 -0.0148667 0.0235273 -0.00061363 -0.0229136 0.0263453 0.00905189 -0.0141619 -0.0252839 -0.0270317 -0.0277256
387.0 -0.0157417 -0.0303038 -0.0145622 0.0230227 -0.000589747 -0.022433 0.0257179 0.00883655 -0.013882 -0.0247706 -0.0264781 -0.0271558
388.0 -0.0153948 -0.0296568 -0.0142621 0.0225258 -0.000566337 -0.0219595 0.0251017 0.00862365 -0.0136055 -0.0242631 -0.0259311 -0.0265925
389.0 -0.0150533 -0.02902 -0.0139668 0.0220367 -0.000543255 -0.0214934 0.0244963 0.00841303 -0.0133329 -0.0237623 -0.025391 -0.0260366
390.0 -0.0147173 -0.0283935 -0.0136761 0.0215554 -0.000520608 -0.0210348 0.023902 0.00820494 -0.013064 -0.023268 -0.0248579 -0.0254878
391.0 -0.014387 -0.027777 -0.01339 0.021082 -0.000498509 -0.0205835 0.0233192 0.00799966 -0.0127988 -0.0227801 -0.0243318 -0.0249463
392.0 -0.0140623 -0.0271709 -0.0131086 0.0206166 -0.000476875 -0.0201398 0.0227476 0.0077973 -0.0125374 -0.0222992 -0.0238131 -0.0244124
393.0 -0.0137434 -0.0265754 -0.012832 0.0201594 -0.000455693 -0.0197037 0.0221873 0.00759762 -0.01228 -0.0218252 -0.0233019 -0.0238864
394.0 -0.0134303 -0.0259902 -0.0125599 0.0197102 -0.00043516 -0.0192751 0.0216386 0.00740117 -0.0120265 -0.0213582 -0.0227983 -0.023368
395.0 -0.0131229 -0.0254155 -0.0122925 0.0192692 -0.000415197 -0.018854 0.0211015 0.00720805 -0.0117767 -0.0208982 -0.0223023 -0.0228576
396.0 -0.0128214 -0.0248515 -0.0120301 0.0188365 -0.000395678 -0.0184408 0.0205756 0.00701788 -0.0115312 -0.0204457 -0.0218143 -0.0223555
397.0 -0.0125259 -0.024298 -0.0117721 0.0184119 -0.000376877 -0.018035 0.0200613 0.00683103 -0.0112896 -0.0200004 -0.0213342 -0.0218616
398.0 -0.0122361 -0.0237549 -0.0115187 0.0179955 -0.000358701 -0.0176368 0.0195587 0.00664783 -0.011052 -0.0195624 -0.0208619 -0.0213758
399.0 -0.0119523 -0.0232226 -0.0112703 0.0175874 -0.000341027 -0.0172464 0.0190673 0.00646797 -0.0108185 -0.019132 -0.020398 -0.0208985
400.0 -0.0116744 -0.0227007 -0.0110263 0.0171876 -0.000324061 -0.0168635 0.0185873 0.00629156 -0.0105891 -0.0187091 -0.0199421 -0.0204297
401.0 -0.0114024 -0.0221895 -0.0107871 0.016796 -0.00030766 -0.0164883 0.0181188 0.00611883 -0.0103638 -0.0182938 -0.0194945 -0.0199694
402.0 -0.0111363 -0.0216887 -0.0105524 0.0164125 -0.000291923 -0.0161205 0.0176614 0.00594965 -0.0101425 -0.0178861 -0.0190551 -0.0195175
403.0 -0.010876 -0.0211985 -0.0103225 0.0160372 -0.000276718 -0.0157605 0.0172152 0.00578404 -0.00992545 -0.0174861 -0.0186242 -0.0190744
404.0 -0.0106215 -0.0207187 -0.0100972 0.0156701 -0.000262182 -0.0154079 0.0167801 0.00562215 -0.00971245 -0.0170938 -0.0182015 -0.0186399
405.0 -0.0103729 -0.0202492 -0.00987628 0.015311 -0.000248303 -0.0150627 0.0163557 0.00546373 -0.00950365 -0.0167091 -0.0177873 -0.0182139
406.0 -0.01013 -0.0197901 -0.00966012 0.01496 -0.00023492 -0.0147251 0.0159426 0.00530929 -0.00929882 -0.0163322 -0.0173813 -0.0177967
407.0 -0.00989274 -0.0193411 -0.00944838 0.0146169 -0.000222178 -0.0143947 0.0155397 0.00515822 -0.00909818 -0.0159629 -0.0169837 -0.017388
408.0 -0.0096612 -0.0189024 -0.00924125 0.0142818 -0.000209974 -0.0140718 0.0151474 0.0050109 -0.00890167 -0.0156014 -0.0165946 -0.0169881
409.0 -0.0094353 -0.0184737 -0.00903843 0.0139545 -0.000198436 -0.0137561 0.0147658 0.00486712 -0.00870929 -0.0152475 -0.0162137 -0.0165967
410.0 -0.00921486 -0.0180551 -0.00884021 0.013635 -0.000187325 -0.0134476 0.0143943 0.00472709 -0.00852086 -0.0149013 -0.0158412 -0.0162139
411.0 -0.00899988 -0.0176462 -0.00864633 0.013323 -0.000176775 -0.0131463 0.0140325 0.0045905 -0.00833657 -0.0145626 -0.0154768 -0.0158395
412.0 -0.00879033 -0.0172471 -0.0084568 0.0130187 -0.000166768 -0.012852 0.013681 0.00445755 -0.00815625 -0.0142316 -0.0151208 -0.0154737
413.0 -0.00858618 -0.0168578 -0.0082716 0.012722 -0.000157291 -0.0125647 0.0133391 0.00432802 -0.00797996 -0.013908 -0.0147728 -0.0151163
414.0 -0.00838723 -0.0164779 -0.00809062 0.0124325 -0.000148305 -0.0122842 0.0130067 0.00420195 -0.00780768 -0.0135919 -0.0144329 -0.0147672
415.0 -0.00819342 -0.0161072 -0.00791376 0.0121503 -0.000139828 -0.0120105 0.012684 0.00407964 -0.00763906 -0.013283 -0.0141009 -0.0144262
416.0 -0.00800472 -0.015746 -0.00774128 0.0118754 -0.00013172 -0.0117436 0.0123698 0.00396018 -0.0074747 -0.0129817 -0.0137771 -0.0140937
417.0 -0.00782102 -0.0153939 -0.00757291 0.0116075 -0.000124058 -0.0114834 0.0120649 0.00384429 -0.00731411 -0.0126876 -0.0134611 -0.0137692
418.0 -0.00764233 -0.0150508 -0.00740846 0.0113466 -0.000116936 -0.0112296 0.0117691 0.00373166 -0.00715724 -0.0124005 -0.0131528 -0.0134526
419.0 -0.00746835 -0.0147164 -0.00724807 0.0110924 -0.000110137 -0.0109822 0.0114816 0.00362243 -0.00700408 -0.0121205 -0.0128521 -0.0131439
420.0 -0.00729912 -0.0143908 -0.00709164 0.0108449 -0.00010374 -0.0107412 0.0112023 0.00351604 -0.00685479 -0.0118475 -0.012559 -0.0128431
421.0 -0.00713454 -0.0140736 -0.00693908 0.0106041 -9.77329e-05 -0.0105063 0.0109314 0.00341299 -0.00670902 -0.0115813 -0.0122733 -0.0125498
422.0 -0.00697458 -0.0137649 -0.00679034 0.0103698 -9.21207e-05 -0.0102776 0.0106688 0.00331303 -0.00656693 -0.011322 -0.0119951 -0.0122642
423.0 -0.00681903 -0.0134645 -0.00664551 0.0101418 -8.6756e-05 -0.010055 0.0104136 0.0032158 -0.00642853 -0.0110694 -0.0117241 -0.0119861
424.0 -0.00666786 -0.0131721 -0.00650427 0.00992 -8.17948e-05 -0.0098382 0.010166 0.00312148 -0.00629362 -0.0108234 -0.0114601 -0.0117153
425.0 -0.00652091 -0.0128875 -0.00636663 0.00970422 -7.71389e-05 -0.00962708 0.00992624 0.00303041 -0.00616193 -0.0105837 -0.0112031 -0.0114515
426.0 -0.00637811 -0.0126107 -0.00623263 0.00949442 -7.27375e-05 -0.00942169 0.00969355 0.00294193 -0.00603371 -0.0103503 -0.010953 -0.0111949
427.0 -0.00623944 -0.0123416 -0.00610219 0.00929054 -6.86263e-05 -0.00922191 0.00946761 0.00285589 -0.00590903 -0.0101234 -0.0107097 -0.0109453
428.0 -0.00610479 -0.01208 -0.00597517 0.00909238 -6.48089e-05 -0.00902757 0.0092487 0.00277283 -0.00578751 -0.00990247 -0.010473 -0.0107024
429.0 -0.00597403 -0.0118256 -0.00585153 0.00889979 -6.12492e-05 -0.00883854 0.00903669 0.00269217 -0.00566924 -0.00968756 -0.0102427 -0.0104663
430.0 -0.00584692 -0.011578 -0.0057311 0.00871247 -5.79114e-05 -0.00865456 0.00883105 0.00261424 -0.00555394 -0.00947837 -0.0100187 -0.0102365
431.0 -0.0057235 -0.0113374 -0.00561394 0.00853046 -5.47796e-05 -0.00847568 0.0086316 0.00253875 -0.00544181 -0.00927502 -0.00980092 -0.0100132
432.0 -0.0056038 -0.0111038 -0.00550002 0.00835381 -5.18899e-05 -0.00830192 0.00843824 0.00246541 -0.00533288 -0.00907743 -0.00958935 -0.00979616
433.0 -0.00548759 -0.0108769 -0.0053893 0.00818225 -4.91471e-05 -0.0081331 0.00825082 0.00239444 -0.00522688 -0.00888535 -0.00938372 -0.00958532
434.0 -0.00537481 -0.0106563 -0.00528151 0.00801557 -4.66495e-05 -0.00796892 0.0080693 0.00232584 -0.00512374 -0.00869861 -0.00918391 -0.00938043
435.0 -0.00526531 -0.010442 -0.00517674 0.00785368 -4.42865e-05 -0.00780939 0.00789367 0.00225962 -0.00502338 -0.00851712 -0.00898972 -0.00918135
436.0 -0.00515895 -0.0102337 -0.0050747 0.0076963 -4.21228e-05 -0.00765418 0.00772306 0.00219535 -0.0049257 -0.00834062 -0.00880093 -0.00898779
437.0 -0.00505578 -0.0100312 -0.00497545 0.00754351 -4.01649e-05 -0.00750335 0.00755773 0.00213318 -0.00483073 -0.00816915 -0.00861758 -0.00879982
438.0 -0.00495577 -0.00983507 -0.0048793 0.00739542 -3.82337e-05 -0.00735719 0.00739763 0.00207304 -0.00473863 -0.00800285 -0.00843972 -0.00861751
439.0 -0.00485873 -0.0096445 -0.00478577 0.00725162 -3.64785e-05 -0.00721514 0.00724254 0.00201477 -0.00464914 -0.00784134 -0.00826705 -0.0084405
440.0 -0.00476449 -0.00945925 -0.00469476 0.00711187 -3.48673e-05 -0.007077 0.00709213 0.00195826 -0.00456211 -0.00768436 -0.00809924 -0.0082685
441.0 -0.00467303 -0.00927945 -0.00460642 0.00697624 -3.3306e-05 -0.00694294 0.0069464 0.00190391 -0.00447748 -0.00753192 -0.00793635 -0.00810154
442.0 -0.00458433 -0.00910462 -0.0045203 0.00684448 -3.20159e-05 -0.00681246 0.00680549 0.0018515 -0.00439496 -0.00738365 -0.00777799 -0.00793927
443.0 -0.00449823 -0.00893501 -0.00443678 0.00671662 -3.07283e-05 -0.00668589 0.00666854 0.00180042 -0.00431508 -0.00723992 -0.00762444 -0.00778191
444.0 -0.00441477 -0.00877048 -0.00435572 0.00659262 -2.95248e-05 -0.0065631 0.00653594 0.00175107 -0.00423752 -0.00710044 -0.00747547 -0.00762924
445.0 -0.00433378 -0.0086107 -0.00427692 0.00647224 -2.84282e-05 -0.00644381 0.00640762 0.00170357 -0.00416208 -0.006965 -0.00733084 -0.00748105
446.0 -0.00425518 -0.00845559 -0.00420042 0.00635539 -2.73813e-05 -0.006328 0.00628276 0.00165717 -0.00408899 -0.00683361 -0.00719053 -0.00733726
447.0 -0.00417888 -0.00830503 -0.00412614 0.00624195 -2.63694e-05 -0.00621558 0.00616216 0.0016127 -0.00401771 -0.0067059 -0.00705425 -0.00719765
448.0 -0.00410489 -0.00815863 -0.00405374 0.00613176 -2.5577e-05 -0.00610619 0.0060453 0.00156975 -0.00394849 -0.00658192 -0.00692194 -0.00706209
449.0 -0.0040331 -0.00801644 -0.00398334 0.00602477 -2.4882e-05 -0.00599989 0.00593212 0.00152823 -0.00388124 -0.00646154 -0.00679351 -0.00693051
450.0 -0.00396333 -0.00787859 -0.00391526 0.00592096 -2.40382e-05 -0.00589692 0.00582202 0.00148785 -0.00381594 -0.00634474 -0.00666893 -0.00680289
451.0 -0.00389565 -0.00774473 -0.00384907 0.00582019 -2.32898e-05 -0.0057969 0.00571521 0.00144883 -0.00375259 -0.00623143 -0.00654806 -0.00667908
452.0 -0.00383011 -0.00761473 -0.00378462 0.00572242 -2.27444e-05 -0.00569967 0.0056119 0.00141111 -0.00369107 -0.00612145 -0.00643077 -0.00655892
453.0 -0.00376647 -0.00748876 -0.00372228 0.00562762 -2.20949e-05 -0.00560552 0.00551183 0.00137459 -0.00363147 -0.0060149 -0.00631711 -0.0064425
454.0 -0.00370462 -0.00736621 -0.00366159 0.00553541 -2.15171e-05 -0.0055139 0.00541488 0.00133952 -0.00357331 -0.00591123 -0.00620662 -0.00632933
455.0 -0.00364456 -0.00724704 -0.00360248 0.0054458 -2.10392e-05 -0.00542476 0.00532041 0.00130555 -0.00351672 -0.00581049 -0.00609927 -0.00621939
456.0 -0.00358624 -0.00713114 -0.0035449 0.00535869 -2.067e-05 -0.00533802 0.00522895 0.0012726 -0.00346179 -0.00571264 -0.00599499 -0.0061126
457.0 -0.00352959 -0.00701877 -0.00348918 0.00527418 -2.02071e-05 -0.00525397 0.00514025 0.00124069 -0.00340844 -0.00561773 -0.0058939 -0.00600907
458.0 -0.00347468 -0.0069098 -0.00343512 0.00519224 -1.9777e-05 -0.00517246 0.00505445 0.00120998 -0.00335676 -0.0055258 -0.00579594 -0.00590875
459.0 -0.00342139 -0.00680407 -0.00338267 0.00511273 -1.93591e-05 -0.00509337 0.00497097 0.00118024 -0.00330658 -0.00543657 -0.00570087 -0.0058114
460.0 -0.0033696 -0.00670126 -0.00333166 0.00503543 -1.89711e-05 -0.00501646 0.0048896 0.00115126 -0.00325783 -0.00534991 -0.00560855 -0.00571685
461.0 -0.00331925 -0.00660119 -0.00328194 0.00496022 -1.86535e-05 -0.00494157 0.00481077 0.00112313 -0.00321037 -0.00526559 -0.00551877 -0.00562491
462.0 -0.00327031 -0.00650383 -0.00323352 0.00488707 -1.83902e-05 -0.00486868 0.00473448 0.00109614 -0.00316416 -0.0051837 -0.00543158 -0.00553564
463.0 -0.0032227 -0.0064091 -0.0031864 0.0048159 -1.81481e-05 -0.00479775 0.00466076 0.00107053 -0.00311898 -0.00510397 -0.00534678 -0.00544883
464.0 -0.00317645 -0.00631721 -0.00314076 0.00474683 -1.78452e-05 -0.00472898 0.004589 0.00104572 -0.00307512 -0.00502662 -0.00526451 -0.00536462
465.0 -0.00313164 -0.00622808 -0.00309644 0.00467986 -1.76012e-05 -0.00466226 0.00451882 0.00102105 -0.00303292 -0.00495178 -0.00518482 -0.00528301
466.0 -0.00308803 -0.00614133 -0.00305329 0.00461468 -1.73698e-05 -0.00459731 0.00445064 0.000997014 -0.00299177 -0.00487891 -0.00510729 -0.00520364
467.0 -0.0030457 -0.00605698 -0.00301128 0.00455134 -1.72134e-05 -0.00453413 0.00438446 0.000973818 -0.00295193 -0.00480831 -0.00503211 -0.00512664
468.0 -0.00300435 -0.00597503 -0.00297068 0.00448969 -1.68384e-05 -0.00447285 0.00432033 0.000951947 -0.00291288 -0.00473955 -0.00495899 -0.0050518
469.0 -0.00296412 -0.00589532 -0.0029312 0.00442972 -1.64618e-05 -0.00441326 0.00425811 0.000930869 -0.0028748 -0.00467265 -0.0048879 -0.00497904
470.0 -0.00292513 -0.00581747 -0.00289234 0.0043713 -1.63968e-05 -0.0043549 0.00419761 0.000910172 -0.00283783 -0.00460757 -0.00481868 -0.00490818
471.0 -0.00288717 -0.00574139 -0.00285421 0.00431428 -1.64796e-05 -0.0042978 0.00413906 0.000890178 -0.00280161 -0.00454397 -0.00475115 -0.00483907
472.0 -0.00285018 -0.00566765 -0.00281747 0.00425892 -1.63572e-05 -0.00424256 0.0040817 0.000870715 -0.00276653 -0.00448238 -0.0046857 -0.00477209
473.0 -0.00281416 -0.00559637 -0.00278221 0.00420527 -1.59742e-05 -0.00418929 0.00402558 0.000851671 -0.00273274 -0.00442287 -0.00462241 -0.00470729
474.0 -0.0027791 -0.00552689 -0.0027478 0.004153 -1.56505e-05 -0.00413735 0.00397111 0.00083347 -0.00269973 -0.0043649 -0.00456079 -0.00464422
475.0 -0.00274506 -0.00545912 -0.00271406 0.00410209 -1.55005e-05 -0.00408659 0.00391825 0.000815787 -0.00266759 -0.00430847 -0.00450082 -0.00458282
476.0 -0.00271191 -0.005393 -0.00268109 0.00405245 -1.54091e-05 -0.00403704 0.00386699 0.000798577 -0.00263621 -0.00425345 -0.00444235 -0.00452299
477.0 -0.00267954 -0.00532841 -0.00264887 0.00400397 -1.53315e-05 -0.00398864 0.00381726 0.000782177 -0.00260538 -0.0041997 -0.00438531 -0.00446465
478.0 -0.00264798 -0.00526551 -0.00261753 0.00395675 -1.52271e-05 -0.00394152 0.00376877 0.000766329 -0.00257538 -0.0041474 -0.00432983 -0.00440787
479.0 -0.00261715 -0.00520429 -0.00258714 0.00391072 -1.50025e-05 -0.00389572 0.00372118 0.000750707 -0.00254631 -0.00409661 -0.0042759 -0.00435268
480.0 -0.00258708 -0.00514445 -0.00255737 0.00386577 -1.48567e-05 -0.00385091 0.00367473 0.000735688 -0.00251782 -0.00404702 -0.00422327 -0.00429884
481.0 -0.00255793 -0.0050863 -0.00252837 0.00382211 -1.47823e-05 -0.00380733 0.00362969 0.00072108 -0.00249023 -0.00399888 -0.00417218 -0.00424655
482.0 -0.00252953 -0.00502983 -0.00250031 0.00377968 -1.46086e-05 -0.00376507 0.00358581 0.000706847 -0.00246342 -0.00395212 -0.00412254 -0.00419575
483.0 -0.00250181 -0.00497491 -0.0024731 0.00373836 -1.43552e-05 -0.003724 0.00354308 0.000693101 -0.00243725 -0.00390661 -0.00407426 -0.00414637
484.0 -0.00247471 -0.00492102 -0.00244631 0.00369786 -1.4199e-05 -0.00368366 0.00350111 0.0006795 -0.00241177 -0.00386217 -0.00402708 -0.00409807
485.0 -0.00244816 -0.00486813 -0.00241997 0.00365815 -1.40988e-05 -0.00364405 0.00346021 0.000666382 -0.0023868 -0.00381868 -0.00398092 -0.00405082
486.0 -0.00242222 -0.00481648 -0.00239426 0.00361935 -1.3979e-05 -0.00360537 0.00342062 0.000654063 -0.00236214 -0.00377612 -0.00393584 -0.00400473
487.0 -0.00239702 -0.00476616 -0.00236914 0.00358159 -1.39383e-05 -0.00356765 0.00338217 0.000642225 -0.00233804 -0.00373463 -0.0038919 -0.00395981
488.0 -0.0023724 -0.00471729 -0.00234489 0.00354484 -1.37556e-05 -0.00353109 0.00334452 0.000630615 -0.00231472 -0.00369436 -0.00384924 -0.00391616
489.0 -0.00234835 -0.00466944 -0.00232109 0.00350889 -1.3632e-05 -0.00349526 0.00330762 0.000619174 -0.00229196 -0.00365503 -0.00380756 -0.00387354
490.0 -0.0023248 -0.0046227 -0.0022979 0.00347375 -1.34467e-05 -0.0034603 0.00327132 0.000607847 -0.00226977 -0.00361666 -0.00376689 -0.00383194
491.0 -0.00230182 -0.004577 -0.00227518 0.00343941 -1.3322e-05 -0.00342609 0.00323566 0.000596564 -0.00224836 -0.00357937 -0.00372731 -0.00379141
492.0 -0.0022794 -0.00453235 -0.00225295 0.00340588 -1.32275e-05 -0.00339265 0.0032009 0.00058571 -0.0022274 -0.00354299 -0.00368869 -0.00375187
493.0 -0.0022574 -0.0044887 -0.00223129 0.00337305 -1.3055e-05 -0.00336 0.00316749 0.000575776 -0.0022065 -0.0035072 -0.00365084 -0.0037132
494.0 -0.00223585 -0.0044461 -0.00221025 0.00334098 -1.28036e-05 -0.00332817 0.00313484 0.000566245 -0.00218593 -0.00347216 -0.00361381 -0.00367537
495.0 -0.00221481 -0.00440438 -0.00218958 0.0033096 -1.26167e-05 -0.00329698 0.00310271 0.000556736 -0.00216607 -0.00343809 -0.00357775 -0.00363849
496.0 -0.00219426 -0.0043635 -0.00216924 0.00327888 -1.25072e-05 -0.00326637 0.00307141 0.000547368 -0.00214676 -0.00340487 -0.00354255 -0.00360247
497.0 -0.00217411 -0.00432311 -0.00214901 0.00324861 -1.25507e-05 -0.00323606 0.00304075 0.00053825 -0.00212762 -0.00337208 -0.00350787 -0.003567
498.0 -0.00215431 -0.00428348 -0.00212918 0.00321889 -1.25639e-05 -0.00320633 0.00301041 0.000529151 -0.00210886 -0.00333989 -0.00347381 -0.00353217
499.0 -0.00213493 -0.00424515 -0.00211021 0.00319004 -1.23609e-05 -0.00317768 0.00298045 0.000520192 -0.00209072 -0.00330872 -0.00344082 -0.00349844
500.0 -0.00211606 -0.00420804 -0.00209198 0.00316205 -1.20408e-05 -0.00315001 0.00295147 0.000511872 -0.00207303 -0.00327855 -0.00340889 -0.00346579
501.0 -0.00209757 -0.00417157 -0.002074 0.00313457 -1.17847e-05 -0.00312278 0.00292325 0.000503896 -0.00205568 -0.00324895 -0.00337758 -0.00343377
502.0 -0.00207939 -0.0041355 -0.00205611 0.00310745 -1.16402e-05 -0.00309581 0.00289563 0.000496016 -0.00203861 -0.00321977 -0.00334669 -0.00340217
503.0 -0.0020615 -0.00409992 -0.00203842 0.00308071 -1.15426e-05 -0.00306917 0.00286854 0.000488219 -0.00202173 -0.003191 -0.00331628 -0.00337108
504.0 -0.00204402 -0.00406501 -0.00202099 0.00305452 -1.15128e-05 -0.003043 0.00284198 0.000480606 -0.00200517 -0.00316283 -0.00328654 -0.00334069
505.0 -0.00202684 -0.00403091 -0.00200407 0.00302888 -1.13834e-05 -0.00301749 0.00281595 0.000473263 -0.00198897 -0.00313536 -0.00325751 -0.00331103
506.0 -0.00201002 -0.00399758 -0.00198756 0.0030038 -1.12332e-05 -0.00299257 0.00279028 0.000465931 -0.00197321 -0.00310852 -0.00322913 -0.003282
507.0 -0.00199355 -0.00396485 -0.0019713 0.0029792 -1.11244e-05 -0.00296807 0.00276526 0.000459059 -0.00195755 -0.00308205 -0.00320119 -0.00325344
508.0 -0.00197728 -0.00393271 -0.00195543 0.002955 -1.09233e-05 -0.00294407 0.00274054 0.000452396 -0.0019422 -0.0030561 -0.00317378 -0.00322543
509.0 -0.00196133 -0.00390113 -0.0019398 0.00293123 -1.07623e-05 -0.00292047 0.0027162 0.000445862 -0.00192714 -0.00303067 -0.00314694 -0.00319802
510.0 -0.00194576 -0.00387008 -0.00192432 0.00290792 -1.07212e-05 -0.0028972 0.00269248 0.000439325 -0.00191255 -0.00300588 -0.00312074 -0.00317122
511.0 -0.00193044 -0.00383979 -0.00190934 0.00288512 -1.05504e-05 -0.00287456 0.00266903 0.000432737 -0.00189842 -0.00298176 -0.0030952 -0.00314507
512.0 -0.00191533 -0.00381001 -0.00189468 0.00286267 -1.03238e-05 -0.00285234 0.00264613 0.000426415 -0.00188432 -0.00295791 -0.00307002 -0.00311934
513.0 -0.00190042 -0.00378072 -0.0018803 0.00284057 -1.00616e-05 -0.00283051 0.00262386 0.000420446 -0.00187024 -0.00293431 -0.00304517 -0.00309399
514.0 -0.00188583 -0.00375179 -0.00186595 0.00281881 -9.93806e-06 -0.00280887 0.00260173 0.000414542 -0.00185641 -0.00291109 -0.00302069 -0.00306898
515.0 -0.00187156 -0.0037233 -0.00185174 0.00279743 -9.91262e-06 -0.00278752 0.00258003 0.000408875 -0.00184288 -0.00288832 -0.00299667 -0.00304442
516.0 -0.00185755 -0.00369546 -0.00183791 0.0027765 -9.81748e-06 -0.00276669 0.00255876 0.000403345 -0.00182979 -0.0028662 -0.00297326 -0.00302048
517.0 -0.00184368 -0.00366793 -0.00182425 0.00275581 -9.71457e-06 -0.00274609 0.00253773 0.000397902 -0.00181683 -0.00284435 -0.0029502 -0.00299689
518.0 -0.00182992 -0.00364075 -0.00181083 0.00273533 -9.54341e-06 -0.00272579 0.00251717 0.000392755 -0.00180373 -0.00282261 -0.00292734 -0.00297358
519.0 -0.0018164 -0.00361399 -0.00179759 0.0027152 -9.40458e-06 -0.00270579 0.0024969 0.000387628 -0.0017909 -0.00280127 -0.0029049 -0.00295068
520.0 -0.0018032 -0.00358793 -0.00178473 0.00269556 -9.23788e-06 -0.00268633 0.00247681 0.000382279 -0.00177856 -0.00278052 -0.00288303 -0.00292833
521.0 -0.00179022 -0.00356233 -0.00177211 0.00267628 -9.059e-06 -0.00266722 0.00245689 0.000376806 -0.0017666 -0.00276024 -0.00286159 -0.00290639
522.0 -0.00177747 -0.00353719 -0.00175972 0.00265733 -8.87481e-06 -0.00264846 0.00243741 0.000371598 -0.0017549 -0.00274041 -0.00284059 -0.00288491
523.0 -0.00176488 -0.00351236 -0.00174747 0.00263862 -8.70533e-06 -0.00262991 0.00241853 0.000366927 -0.00174312 -0.00272073 -0.00281984 -0.0028637
524.0 -0.00175241 -0.00348763 -0.00173522 0.00262002 -8.59302e-06 -0.00261143 0.00239989 0.000362585 -0.00173118 -0.00270104 -0.00279916 -0.00284262
525.0 -0.00174017 -0.00346322 -0.00172304 0.0026017 -8.56508e-06 -0.00259313 0.00238148 0.000358193 -0.00171952 -0.00268169 -0.00277881 -0.00282184
526.0 -0.00172809 -0.0034392 -0.0017111 0.00258365 -8.49648e-06 -0.00257515 0.00236337 0.000353845 -0.00170804 -0.00266269 -0.00275883 -0.00280144
527.0 -0.00171612 -0.00341575 -0.00169963 0.00256593 -8.24354e-06 -0.00255769 0.00234543 0.000349395 -0.0016969 -0.00264414 -0.0027393 -0.00278148
528.0 -0.00170433 -0.00339274 -0.00168841 0.00254853 -7.96214e-06 -0.00254057 0.00232759 0.000344683 -0.00168614 -0.00262603 -0.00272016 -0.00276192
529.0 -0.00169272 -0.00336996 -0.00167724 0.00253134 -7.73938e-06 -0.0025236 0.00231015 0.000340247 -0.00167535 -0.00260804 -0.00270122 -0.00274257
530.0 -0.00168126 -0.00334717 -0.00166591 0.00251421 -7.67093e-06 -0.00250654 0.00229297 0.000336156 -0.00166445 -0.00259003 -0.00268229 -0.00272327
531.0 -0.00167004 -0.00332462 -0.00165458 0.00249733 -7.73328e-06 -0.0024896 0.00227584 0.00033198 -0.00165384 -0.00257234 -0.00266365 -0.00270421
532.0 -0.00165906 -0.00330246 -0.0016434 0.00248076 -7.82699e-06 -0.00247293 0.00225926 0.000328066 -0.00164336 -0.00255494 -0.00264535 -0.00268551
533.0 -0.0016482 -0.00328084 -0.00163264 0.00246452 -7.77822e-06 -0.00245674 0.00224303 0.000324439 -0.00163302 -0.00253794 -0.00262749 -0.00266727
534.0 -0.00163733 -0.00325975 -0.00162242 0.00244854 -7.45202e-06 -0.00244109 0.00222669 0.000320679 -0.00162295 -0.00252133 -0.00261001 -0.00264944
535.0 -0.00162652 -0.00323896 -0.00161244 0.00243274 -7.04202e-06 -0.0024257 0.00221047 0.000316771 -0.00161312 -0.00250499 -0.00259279 -0.00263185
536.0 -0.00161586 -0.0032183 -0.00160245 0.00241708 -6.70494e-06 -0.00241037 0.00219449 0.000312874 -0.00160329 -0.00248868 -0.00257565 -0.00261435
537.0 -0.00160534 -0.00319768 -0.00159234 0.00240151 -6.50021e-06 -0.00239501 0.00217874 0.000308947 -0.00159357 -0.00247252 -0.00255861 -0.00259696
538.0 -0.00159501 -0.00317718 -0.00158217 0.0023861 -6.42199e-06 -0.00237967 0.00216319 0.000305139 -0.00158396 -0.00245653 -0.00254176 -0.00257973
539.0 -0.00158491 -0.00315688 -0.00157197 0.0023709 -6.4708e-06 -0.00236443 0.00214803 0.00030173 -0.00157434 -0.00244068 -0.0025251 -0.00256271
540.0 -0.00157507 -0.00313685 -0.00156178 0.00235596 -6.64787e-06 -0.00234931 0.00213342 0.00029862 -0.00156474 -0.00242502 -0.00250869 -0.00254595
541.0 -0.00156527 -0.00311709 -0.00155182 0.00234118 -6.72087e-06 -0.00233446 0.00211894 0.000295545 -0.00155524 -0.00240957 -0.0024925 -0.00252945
542.0 -0.00155539 -0.00309764 -0.00154224 0.00232651 -6.57338e-06 -0.00231994 0.0021043 0.000292379 -0.00154587 -0.00239429 -0.00247649 -0.00251313
543.0 -0.00154559 -0.00307857 -0.00153298 0.00231208 -6.30414e-06 -0.00230578 0.00208933 0.000288858 -0.00153681 -0.00237931 -0.00246073 -0.00249705
544.0 -0.00153592 -0.00305985 -0.00152393 0.00229788 -5.99356e-06 -0.00229189 0.00207465 0.000285313 -0.001528 -0.00236464 -0.00244528 -0.00248127
545.0 -0.00152637 -0.00304131 -0.00151494 0.00228384 -5.7171e-06 -0.00227813 0.00206024 0.000281796 -0.00151933 -0.0023502 -0.00243005 -0.0024657
546.0 -0.00151695 -0.00302292 -0.00150597 0.00226993 -5.48876e-06 -0.00226444 0.00204621 0.000278548 -0.00151068 -0.0023359 -0.002415 -0.00245032
547.0 -0.00150766 -0.00300469 -0.00149703 0.00225618 -5.31753e-06 -0.00225086 0.00203228 0.000275433 -0.00150213 -0.00232182 -0.00240017 -0.00243517
548.0 -0.00149851 -0.00298654 -0.00148803 0.00224252 -5.24025e-06 -0.00223728 0.00201869 0.00027266 -0.00149344 -0.0023077 -0.00238538 -0.00242008
549.0 -0.00148949 -0.0029685 -0.00147901 0.002229 -5.24355e-06 -0.00222376 0.00200537 0.000269904 -0.00148481 -0.00229368 -0.00237068 -0.0024051
550.0 -0.0014806 -0.00295064 -0.00147004 0.00221562 -5.28306e-06 -0.00221034 0.00199215 0.000267 -0.00147629 -0.00227976 -0.00235609 -0.00239022
551.0 -0.00147182 -0.00293305 -0.00146122 0.00220244 -5.30209e-06 -0.00219713 0.00197911 0.000264058 -0.00146791 -0.00226603 -0.00234168 -0.00237551
552.0 -0.00146304 -0.00291572 -0.00145268 0.00218938 -5.17818e-06 -0.0021842 0.0019661 0.000261219 -0.00145962 -0.00225247 -0.00232746 -0.002361
553.0 -0.00145431 -0.00289864 -0.00144432 0.00217647 -4.99538e-06 -0.00217148 0.00195296 0.000258306 -0.00145146 -0.0022391 -0.00231342 -0.00234666
554.0 -0.00144563 -0.00288161 -0.00143598 0.00216362 -4.82422e-06 -0.0021588 0.00193992 0.000255444 -0.00144334 -0.00222582 -0.00229947 -0.00233243
555.0 -0.00143698 -0.00286476 -0.00142778 0.00215087 -4.59756e-06 -0.00214627 0.00192716 0.000252708 -0.0014353 -0.00221274 -0.00228576 -0.00231844
556.0 -0.0014285 -0.00284819 -0.00141969 0.00213834 -4.40631e-06 -0.00213394 0.00191447 0.000249972 -0.00142746 -0.00219992 -0.0022723 -0.00230471
557.0 -0.00142015 -0.00283177 -0.00141161 0.00212596 -4.27125e-06 -0.00212169 0.00190199 0.000247351 -0.0014197 -0.00218723 -0.00225898 -0.00229112
558.0 -0.00141192 -0.00281537 -0.00140346 0.00211365 -4.23126e-06 -0.00210942 0.00188955 0.000244639 -0.00141206 -0.00217465 -0.00224573 -0.00227758
559.0 -0.00140374 -0.00279897 -0.00139523 0.00210136 -4.25662e-06 -0.0020971 0.00187732 0.000242029 -0.00140436 -0.00216206 -0.00223251 -0.00226409
560.0 -0.00139564 -0.00278286 -0.00138722 0.00208925 -4.20923e-06 -0.00208504 0.00186523 0.000239378 -0.00139681 -0.00214967 -0.0022195 -0.0022508
561.0 -0.0013876 -0.00276699 -0.00137939 0.00207729 -4.10819e-06 -0.00207319 0.0018533 0.0002368 -0.00138927 -0.00213736 -0.00220659 -0.00223762
562.0 -0.00137965 -0.00275151 -0.00137186 0.00206558 -3.89862e-06 -0.00206168 0.00184164 0.000234401 -0.00138175 -0.00212522 -0.00219388 -0.00222467
563.0 -0.00137178 -0.00273637 -0.0013646 0.00205408 -3.59076e-06 -0.00205049 0.00183018 0.000232183 -0.00137429 -0.00211326 -0.00218138 -0.00221195
564.0 -0.001364 -0.00272129 -0.00135729 0.00204264 -3.35206e-06 -0.00203929 0.00181861 0.000229753 -0.00136702 -0.00210144 -0.00216898 -0.0021993
565.0 -0.00135626 -0.00270597 -0.00134971 0.00203112 -3.27633e-06 -0.00202784 0.00180706 0.000227244 -0.00135973 -0.00208955 -0.00215652 -0.0021866
566.0 -0.00134862 -0.00269068 -0.00134207 0.00201965 -3.27607e-06 -0.00201637 0.00179561 0.000224732 -0.0013526 -0.00207784 -0.00214422 -0.00217402
567.0 -0.00134099 -0.00267534 -0.00133435 0.00200816 -3.3176e-06 -0.00200485 0.00178426 0.000222431 -0.00134537 -0.00206609 -0.0021319 -0.00216145
568.0 -0.00133342 -0.00266003 -0.00132661 0.00199672 -3.40387e-06 -0.00199332 0.00177301 0.0002202 -0.00133815 -0.00205437 -0.00211962 -0.00214892
569.0 -0.00132593 -0.00264486 -0.00131892 0.0019854 -3.5049e-06 -0.00198189 0.00176181 0.000217913 -0.00133105 -0.00204281 -0.00210749 -0.00213652
570.0 -0.00131852 -0.00263005 -0.00131153 0.00197428 -3.49322e-06 -0.00197079 0.00175063 0.000215571 -0.00132411 -0.0020315 -0.00209562 -0.00212441
571.0 -0.00131108 -0.00261563 -0.00130456 0.00196335 -3.25959e-06 -0.0019601 0.00173977 0.000213423 -0.00131717 -0.00202034 -0.00208395 -0.00211252
572.0 -0.00130372 -0.00260162 -0.0012979 0.00195267 -2.90966e-06 -0.00194976 0.00172897 0.000211172 -0.00131044 -0.00200943 -0.00207252 -0.00210087
573.0 -0.00129644 -0.0025879 -0.00129146 0.00194217 -2.49068e-06 -0.00193968 0.00171829 0.000208963 -0.00130377 -0.00199864 -0.00206121 -0.00208936
574.0 -0.00128931 -0.00257428 -0.00128497 0.0019318 -2.17419e-06 -0.00192962 0.00170772 0.000206796 -0.00129718 -0.00198796 -0.00205001 -0.00207795
575.0 -0.00128237 -0.0025606 -0.00127823 0.00192149 -2.07183e-06 -0.00191941 0.00169722 0.000204551 -0.00129077 -0.00197742 -0.00203892 -0.00206661
576.0 -0.00127549 -0.00254672 -0.00127122 0.00191111 -2.13397e-06 -0.00190897 0.00168691 0.000202346 -0.00128423 -0.00196674 -0.00202773 -0.00205518
577.0 -0.00126858 -0.00253274 -0.00126415 0.00190066 -2.21665e-06 -0.00189844 0.00167653 0.000200187 -0.00127765 -0.00195603 -0.00201651 -0.00204372
578.0 -0.00126164 -0.00251876 -0.00125713 0.0018902 -2.2553e-06 -0.00188794 0.00166626 0.000198196 -0.00127105 -0.00194535 -0.00200532 -0.00203231
579.0 -0.00125465 -0.00250484 -0.00125019 0.00187974 -2.22771e-06 -0.00187752 0.00165612 0.000196417 -0.00126434 -0.00193468 -0.00199418 -0.00202095
580.0 -0.00124776 -0.00249096 -0.00124319 0.00186936 -2.28592e-06 -0.00186708 0.00164611 0.000194644 -0.00125767 -0.00192404 -0.00198307 -0.00200963
581.0 -0.00124104 -0.00247739 -0.00123634 0.00185921 -2.34901e-06 -0.00185687 0.00163623 0.000192693 -0.00125123 -0.00191363 -0.00197216 -0.00199851
582.0 -0.00123438 -0.00246418 -0.0012298 0.00184928 -2.28782e-06 -0.00184699 0.00162646 0.000190632 -0.00124496 -0.00190343 -0.00196147 -0.00198761
583.0 -0.00122769 -0.00245114 -0.00122345 0.00183942 -2.11986e-06 -0.0018373 0.00161673 0.000188596 -0.00123867 -0.00189328 -0.00195086 -0.00197681
584.0 -0.00122105 -0.00243834 -0.00121729 0.00182969 -1.88318e-06 -0.00182781 0.00160671 0.000186374 -0.00123264 -0.00188341 -0.0019405 -0.00196624
585.0 -0.00121452 -0.00242586 -0.00121134 0.00182019 -1.5913e-06 -0.0018186 0.00159682 0.00018423 -0.0012268 -0.00187382 -0.00193043 -0.00195594
586.0 -0.00120805 -0.00241344 -0.00120539 0.00181075 -1.33297e-06 -0.00180941 0.00158708 0.000182282 -0.00122091 -0.00186426 -0.00192039 -0.0019457
587.0 -0.00120163 -0.00240092 -0.0011993 0.00180128 -1.16578e-06 -0.00180011 0.00157744 0.000180332 -0.00121498 -0.00185464 -0.0019103 -0.00193541
588.0 -0.00119519 -0.00238835 -0.00119316 0.00179177 -1.01177e-06 -0.00179076 0.00156794 0.00017863 -0.0012089 -0.00184494 -0.00190017 -0.00192509
589.0 -0.00118876 -0.00237569 -0.00118692 0.00178222 -9.20831e-07 -0.0017813 0.00155853 0.000177033 -0.00120277 -0.00183519 -0.00188998 -0.00191471
590.0 -0.00118241 -0.00236293 -0.00118051 0.00177267 -9.5024e-07 -0.00177172 0.00154923 0.000175333 -0.00119669 -0.00182543 -0.00187976 -0.00190427
591.0 -0.00117613 -0.00235017 -0.00117404 0.00176315 -1.04304e-06 -0.00176211 0.00154003 0.000173582 -0.00119066 -0.00181569 -0.00186956 -0.00189387
592.0 -0.00116995 -0.00233756 -0.00116761 0.00175375 -1.1716e-06 -0.00175258 0.00153104 0.000171916 -0.00118458 -0.00180597 -0.00185943 -0.00188356
593.0 -0.00116394 -0.00232531 -0.00116138 0.00174463 -1.2798e-06 -0.00174335 0.00152225 0.000170168 -0.00117877 -0.00179656 -0.00184958 -0.00187352
594.0 -0.00115806 -0.00231346 -0.00115541 0.00173576 -1.32453e-06 -0.00173444 0.00151346 0.000168224 -0.00117326 -0.00178751 -0.00184007 -0.00186381
595.0 -0.00115219 -0.00230187 -0.00114968 0.00172703 -1.25202e-06 -0.00172578 0.00150481 0.000166337 -0.00116782 -0.0017786 -0.00183073 -0.00185426
596.0 -0.00114625 -0.00229039 -0.00114414 0.00171832 -1.05255e-06 -0.00171727 0.00149613 0.000164501 -0.00116236 -0.00176973 -0.00182145 -0.00184479
597.0 -0.00114021 -0.00227881 -0.0011386 0.00170951 -8.0766e-07 -0.00170871 0.00148727 0.000162648 -0.00115683 -0.00176081 -0.0018121 -0.00183527
598.0 -0.00113416 -0.00226714 -0.00113299 0.00170065 -5.85933e-07 -0.00170006 0.00147834 0.000160894 -0.0011512 -0.0017518 -0.00180269 -0.00182569
599.0 -0.0011281 -0.00225546 -0.00112736 0.00169178 -3.68731e-07 -0.00169141 0.00146938 0.000159283 -0.00114555 -0.00174282 -0.0017933 -0.00181611
600.0 -0.00112203 -0.00224385 -0.00112182 0.00168294 -1.07684e-07 -0.00168284 0.00146013 0.000157556 -0.00114003 -0.00173393 -0.00178397 -0.00180659
601.0 -0.00111605 -0.00223218 -0.00111613 0.00167411 4.22588e-08 -0.00167416 0.00145114 0.000155897 -0.00113449 -0.00172499 -0.00177459 -0.00179702
602.0 -0.00111016 -0.0022204 -0.00111024 0.00166528 3.86935e-08 -0.00166532 0.00144256 0.000154428 -0.0011288 -0.00171593 -0.00176515 -0.00178741
603.0 -0.0011044 -0.00220865 -0.00110425 0.00165653 -7.67177e-08 -0.00165645 0.00143415 0.000152966 -0.00112318 -0.00170696 -0.0017558 -0.00177789
604.0 -0.00109875 -0.00219708 -0.00109833 0.00164791 -2.08209e-07 -0.0016477 0.00142583 0.000151518 -0.00111769 -0.00169818 -0.00174663 -0.00176856
605.0 -0.00109323 -0.0021859 -0.00109267 0.00163956 -2.78247e-07 -0.00163928 0.00141775 0.000150052 -0.00111244 -0.00168971 -0.00173777 -0.00175951
606.0 -0.00108786 -0.00217503 -0.00108717 0.00163144 -3.44255e-07 -0.0016311 0.00140993 0.000148615 -0.00110728 -0.00168139 -0.00172908 -0.00175065
607.0 -0.00108255 -0.00216445 -0.00108191 0.0016235 -3.19371e-07 -0.00162318 0.00140231 0.000147143 -0.00110219 -0.00167321 -0.00172054 -0.00174194
608.0 -0.00107726 -0.00215405 -0.00107679 0.00161566 -2.35072e-07 -0.00161542 0.00139458 0.000145467 -0.00109722 -0.00166513 -0.00171206 -0.00173329
609.0 -0.00107198 -0.00214367 -0.00107169 0.00160782 -1.42187e-07 -0.00160768 0.00138663 0.000143605 -0.00109235 -0.00165711 -0.00170363 -0.00172467
610.0 -0.0010666 -0.00213329 -0.0010667 0.00159995 4.79631e-08 -0.00159999 0.00137862 0.000141778 -0.00108748 -0.00164913 -0.00169523 -0.00171609
611.0 -0.00106113 -0.00212281 -0.00106168 0.00159197 2.75686e-07 -0.00159224 0.00137049 0.00013997 -0.00108253 -0.00164107 -0.00168676 -0.00170744
612.0 -0.00105556 -0.00211225 -0.00105668 0.0015839 5.60016e-07 -0.00158446 0.00136233 0.000138315 -0.00107743 -0.00163289 -0.0016782 -0.00169873
613.0 -0.00105002 -0.00210163 -0.00105162 0.00157583 8.00195e-07 -0.00157663 0.00135414 0.000136768 -0.0010723 -0.00162469 -0.00166962 -0.00169
614.0 -0.00104451 -0.00209085 -0.00104633 0.00156768 9.09771e-07 -0.00156859 0.00134604 0.000135411 -0.00106709 -0.00161641 -0.00166098 -0.0016812
615.0 -0.00103907 -0.00207989 -0.00104081 0.00155948 8.70365e-07 -0.00156035 0.00133808 0.000134135 -0.00106185 -0.0016081 -0.00165232 -0.00167239
616.0 -0.00103371 -0.00206893 -0.00103522 0.00155132 7.55623e-07 -0.00155207 0.00133015 0.00013281 -0.00105673 -0.00159992 -0.00164378 -0.00166367
617.0 -0.00102837 -0.00205801 -0.00102964 0.00154319 6.31073e-07 -0.00154382 0.00132239 0.000131653 -0.00105155 -0.00159173 -0.00163527 -0.00165501
618.0 -0.00102315 -0.00204734 -0.00102419 0.00153525 5.22021e-07 -0.00153577 0.0013147 0.0001305 -0.00104643 -0.00158366 -0.00162688 -0.00164647
619.0 -0.00101812 -0.00203693 -0.00101881 0.00152753 3.44196e-07 -0.00152787 0.00130747 0.00012941 -0.00104141 -0.00157572 -0.00161861 -0.00163805
620.0 -0.00101321 -0.00202699 -0.00101377 0.0015201 2.80052e-07 -0.00152038 0.00130036 0.000128166 -0.00103663 -0.00156806 -0.00161061 -0.00162989
621.0 -0.00100837 -0.00201752 -0.00100915 0.00151294 3.93367e-07 -0.00151334 0.00129343 0.000126884 -0.00103205 -0.00156069 -0.00160291 -0.00162202
622.0 -0.00100356 -0.00200839 -0.00100482 0.00150598 6.30476e-07 -0.00150661 0.0012864 0.000125389 -0.00102766 -0.00155356 -0.00159541 -0.00161438
623.0 -0.000998766 -0.00199927 -0.0010005 0.00149902 8.69346e-07 -0.00149989 0.00127913 0.00012368 -0.00102332 -0.00154644 -0.00158792 -0.00160674
624.0 -0.000993967 -0.00199008 -0.000996111 0.00149202 1.07214e-06 -0.00149309 0.00127183 0.0001219 -0.00101892 -0.00153923 -0.00158036 -0.00159903
625.0 -0.000989168 -0.00198079 -0.000991617 0.00148498 1.22481e-06 -0.0014862 0.00126442 0.000120012 -0.00101456 -0.00153203 -0.00157278 -0.0015913
626.0 -0.00098432 -0.00197146 -0.000987139 0.00147789 1.40963e-06 -0.0014793 0.00125709 0.000118236 -0.00101021 -0.00152486 -0.00156523 -0.00158359
627.0 -0.000979386 -0.00196195 -0.000982561 0.00147067 1.5875e-06 -0.00147225 0.00124985 0.000116828 -0.00100572 -0.00151759 -0.0015576 -0.00157581
628.0 -0.000974415 -0.00195224 -0.00097783 0.00146333 1.70767e-06 -0.00146504 0.00124255 0.000115515 -0.00100121 -0.0015103 -0.00154994 -0.00156798
629.0 -0.000969448 -0.00194233 -0.000972885 0.00145589 1.71878e-06 -0.00145761 0.00123543 0.000114364 -0.00099652 -0.00150285 -0.00154217 -0.00156006
630.0 -0.00096453 -0.00193214 -0.000967611 0.00144834 1.54042e-06 -0.00144988 0.00122855 0.000113359 -0.000991691 -0.00149523 -0.00153425 -0.00155199
631.0 -0.000959702 -0.00192189 -0.000962186 0.0014408 1.24205e-06 -0.00144204 0.00122173 0.000112332 -0.000986874 -0.0014876 -0.00152631 -0.00154388
632.0 -0.000954889 -0.00191181 -0.000956923 0.00143335 1.01712e-06 -0.00143437 0.00121489 0.000111338 -0.000982094 -0.00148005 -0.00151845 -0.00153587
633.0 -0.000950093 -0.00190207 -0.000951976 0.00142608 9.41291e-07 -0.00142702 0.001208 0.000110361 -0.000977369 -0.00147264 -0.00151075 -0.00152804
634.0 -0.000945379 -0.00189267 -0.000947291 0.00141902 9.55944e-07 -0.00141998 0.0012011 0.000109308 -0.000972779 -0.00146542 -0.00150324 -0.0015204
635.0 -0.000940742 -0.00188365 -0.000942904 0.00141219 1.08122e-06 -0.00141328 0.00119441 0.000108297 -0.000968276 -0.00145838 -0.00149593 -0.00151298
636.0 -0.00093613 -0.00187489 -0.000938757 0.00140551 1.31328e-06 -0.00140682 0.00118784 0.000107318 -0.00096377 -0.00145141 -0.00148873 -0.00150569
637.0 -0.000931645 -0.00186641 -0.000934768 0.00139903 1.56144e-06 -0.00140059 0.00118115 0.00010612 -0.000959502 -0.00144469 -0.00148174 -0.0014986
638.0 -0.000927283 -0.00185818 -0.000930896 0.00139273 1.80662e-06 -0.00139454 0.00117466 0.000104805 -0.000955449 -0.0014382 -0.00147496 -0.00149171
639.0 -0.000923004 -0.00185007 -0.00092707 0.00138654 2.03316e-06 -0.00138857 0.00116795 0.000103126 -0.000951672 -0.00143191 -0.00146834 -0.00148494
640.0 -0.000918752 -0.00184187 -0.000923119 0.00138031 2.18337e-06 -0.0013825 0.0011612 0.000101289 -0.000948009 -0.00142568 -0.00146172 -0.00147815
641.0 -0.000914529 -0.00183358 -0.000919051 0.00137405 2.26099e-06 -0.00137631 0.00115448 9.95097e-05 -0.000944333 -0.00141941 -0.00145507 -0.00147133
642.0 -0.000910264 -0.001825 -0.000914734 0.00136763 2.23525e-06 -0.00136987 0.00114789 9.79977e-05 -0.000940449 -0.00141293 -0.00144822 -0.0014643
643.0 -0.00090594 -0.00181618 -0.000910245 0.00136106 2.15245e-06 -0.00136321 0.0011415 9.67415e-05 -0.000936407 -0.00140631 -0.00144123 -0.00145714
644.0 -0.000901607 -0.00180712 -0.000905517 0.00135437 1.95533e-06 -0.00135632 0.00113525 9.55961e-05 -0.000932248 -0.00139954 -0.00143413 -0.00144987
645.0 -0.000897264 -0.00179793 -0.000900663 0.0013476 1.69942e-06 -0.0013493 0.00112914 9.45916e-05 -0.000927979 -0.00139272 -0.001427 -0.00144259
646.0 -0.000892856 -0.00178879 -0.000895937 0.00134082 1.54064e-06 -0.00134236 0.00112311 9.36545e-05 -0.000923678 -0.00138592 -0.00141992 -0.00143538
647.0 -0.0008884 -0.00177981 -0.000891411 0.00133411 1.5054e-06 -0.00133561 0.00111705 9.27048e-05 -0.00091938 -0.00137916 -0.00141289 -0.00142823
648.0 -0.000883927 -0.0017711 -0.000887168 0.00132751 1.62081e-06 -0.00132913 0.00111099 9.18376e-05 -0.000915055 -0.00137245 -0.00140595 -0.00142119
649.0 -0.000879508 -0.00176257 -0.000883057 0.00132104 1.77432e-06 -0.00132281 0.00110507 9.10879e-05 -0.000910704 -0.00136579 -0.00139907 -0.00141424
650.0 -0.000875187 -0.00175428 -0.000879089 0.00131473 1.95112e-06 -0.00131668 0.0010992 9.0368e-05 -0.000906451 -0.00135928 -0.00139236 -0.00140745
651.0 -0.000870936 -0.00174619 -0.000875256 0.00130856 2.15977e-06 -0.00131072 0.00109313 8.95034e-05 -0.000902353 -0.00135294 -0.0013858 -0.0014008
652.0 -0.000866751 -0.00173829 -0.00087154 0.00130252 2.39442e-06 -0.00130492 0.00108696 8.85637e-05 -0.000898372 -0.00134674 -0.00137937 -0.00139428
653.0 -0.000862573 -0.00173053 -0.000867954 0.00129655 2.69046e-06 -0.00129924 0.00108062 8.7472e-05 -0.000894542 -0.00134069 -0.00137307 -0.00138788
654.0 -0.000858465 -0.00172275 -0.000864284 0.00129061 2.90957e-06 -0.00129352 0.00107423 8.62245e-05 -0.000890835 -0.0013347 -0.0013668 -0.00138148
655.0 -0.000854512 -0.00171489 -0.000860375 0.0012847 2.93137e-06 -0.00128763 0.00106798 8.48202e-05 -0.000887236 -0.00132874 -0.00136052 -0.00137505
656.0 -0.000850659 -0.00170692 -0.000856257 0.00127879 2.79903e-06 -0.00128159 0.00106184 8.33656e-05 -0.000883616 -0.00132271 -0.00135416 -0.00136853
657.0 -0.000846834 -0.00169888 -0.000852048 0.00127286 2.60698e-06 -0.00127547 0.00105572 8.19067e-05 -0.000880007 -0.00131666 -0.00134777 -0.00136197
658.0 -0.000843069 -0.00169098 -0.000847911 0.00126703 2.42089e-06 -0.00126945 0.00104964 8.05228e-05 -0.00087645 -0.00131072 -0.00134149 -0.00135553
659.0 -0.000839375 -0.00168311 -0.000843738 0.00126124 2.18139e-06 -0.00126343 0.00104383 7.92943e-05 -0.000872857 -0.0013048 -0.00133526 -0.00134914
660.0 -0.000835671 -0.00167529 -0.000839619 0.00125548 1.974e-06 -0.00125745 0.00103827 7.82354e-05 -0.00086924 -0.00129892 -0.00132909 -0.00134282
661.0 -0.000831838 -0.00166742 -0.000835585 0.00124963 1.87311e-06 -0.0012515 0.00103263 7.71925e-05 -0.000865581 -0.00129301 -0.00132288 -0.00133649
662.0 -0.000827844 -0.0016595 -0.000831659 0.00124367 1.9077e-06 -0.00124558 0.001027 7.61481e-05 -0.000861786 -0.00128697 -0.00131659 -0.0013301
663.0 -0.000823782 -0.00165163 -0.000827852 0.00123771 2.03466e-06 -0.00123974 0.00102154 7.51884e-05 -0.000857978 -0.00128096 -0.00131034 -0.00132376
664.0 -0.000819729 -0.00164391 -0.00082418 0.00123182 2.22535e-06 -0.00123404 0.00101611 7.42096e-05 -0.00085424 -0.00127505 -0.00130419 -0.00131751
665.0 -0.000815713 -0.00163634 -0.00082063 0.00122603 2.45867e-06 -0.00122849 0.00101082 7.33202e-05 -0.00085053 -0.00126923 -0.00129814 -0.00131136
666.0 -0.000811754 -0.00162886 -0.000817101 0.0012203 2.67327e-06 -0.00122298 0.00100567 7.26239e-05 -0.000846769 -0.00126343 -0.00129213 -0.00130527
667.0 -0.000807887 -0.00162147 -0.000813582 0.00121468 2.84713e-06 -0.00121753 0.00100066 7.20781e-05 -0.000842975 -0.00125764 -0.00128616 -0.00129923
668.0 -0.000804087 -0.0016142 -0.000810114 0.00120914 3.01321e-06 -0.00121216 0.000995605 7.14694e-05 -0.00083928 -0.00125196 -0.0012803 -0.00129329
669.0 -0.000800349 -0.00160699 -0.000806642 0.00120367 3.14634e-06 -0.00120682 0.000990445 7.06873e-05 -0.000835762 -0.00124642 -0.00127453 -0.00128741
670.0 -0.00079665 -0.00159977 -0.000803115 0.00119821 3.2322e-06 -0.00120144 0.000985074 6.96873e-05 -0.000832358 -0.00124092 -0.00126877 -0.00128152
671.0 -0.000792988 -0.00159246 -0.000799469 0.00119272 3.24012e-06 -0.00119596 0.000979544 6.86132e-05 -0.000828952 -0.00123538 -0.00126296 -0.00127558
672.0 -0.00078937 -0.00158515 -0.00079578 0.00118726 3.20481e-06 -0.00119046 0.000973912 6.7489e-05 -0.000825581 -0.00122987 -0.00125717 -0.00126966
673.0 -0.00078581 -0.00157787 -0.000792056 0.00118184 3.12292e-06 -0.00118496 0.000968223 6.63458e-05 -0.000822212 -0.00122438 -0.00125142 -0.00126378
674.0 -0.000782283 -0.00157071 -0.000788426 0.0011765 3.07138e-06 -0.00117957 0.000962511 6.51941e-05 -0.000818893 -0.00121898 -0.00124574 -0.00125798
675.0 -0.000778794 -0.00156361 -0.000784821 0.0011712 3.01324e-06 -0.00117422 0.000956837 6.41108e-05 -0.00081556 -0.00121358 -0.00124008 -0.0012522
676.0 -0.000775307 -0.00155647 -0.00078116 0.00116589 2.92646e-06 -0.00116881 0.000951253 6.30684e-05 -0.000812149 -0.00120811 -0.00123436 -0.00124636
677.0 -0.000771798 -0.0015492 -0.000777407 0.0011605 2.80447e-06 -0.00116331 0.000945693 6.20013e-05 -0.000808604 -0.00120247 -0.0012285 -0.00124041
678.0 -0.00076831 -0.00154187 -0.000773562 0.00115509 2.62601e-06 -0.00115772 0.000940208 6.08832e-05 -0.000805117 -0.00119687 -0.00122266 -0.00123446
679.0 -0.00076481 -0.00153455 -0.000769737 0.00114968 2.46356e-06 -0.00115214 0.000934843 5.98876e-05 -0.000801649 -0.00119133 -0.00121687 -0.00122857
680.0 -0.000761256 -0.00152732 -0.000766064 0.00114429 2.40414e-06 -0.00114669 0.000929433 5.88321e-05 -0.000798278 -0.00118588 -0.00121116 -0.00122274
681.0 -0.000757704 -0.00152032 -0.000762619 0.00113901 2.45757e-06 -0.00114147 0.0009241 5.77076e-05 -0.000795039 -0.0011806 -0.00120561 -0.00121708
682.0 -0.00075415 -0.00151354 -0.000759393 0.00113385 2.62134e-06 -0.00113647 0.000919209 5.67708e-05 -0.000791815 -0.00117543 -0.00120021 -0.00121158
683.0 -0.00075062 -0.00150688 -0.000756264 0.00112875 2.82177e-06 -0.00113157 0.000914679 5.60312e-05 -0.000788582 -0.00117034 -0.00119491 -0.00120619
684.0 -0.000747141 -0.00150034 -0.000753201 0.00112374 3.0302e-06 -0.00112677 0.000910231 5.53133e-05 -0.000785424 -0.00116534 -0.00118969 -0.00120088
685.0 -0.000743763 -0.00149389 -0.000750125 0.00111883 3.18139e-06 -0.00112201 0.000905822 5.45719e-05 -0.000782352 -0.00116044 -0.00118456 -0.00119564
686.0 -0.000740463 -0.00148749 -0.00074703 0.00111398 3.28363e-06 -0.00111726 0.000901505 5.39071e-05 -0.000779268 -0.00115555 -0.00117946 -0.00119044
687.0 -0.000737212 -0.00148107 -0.000743855 0.00110914 3.3214e-06 -0.00111246 0.000897237 5.32641e-05 -0.000776149 -0.00115062 -0.00117433 -0.0011852
688.0 -0.000734014 -0.00147451 -0.000740497 0.00110426 3.2411e-06 -0.0011075 0.000893058 5.26332e-05 -0.000772964 -0.00114559 -0.00116909 -0.00117987
689.0 -0.000730781 -0.00146798 -0.000737194 0.00109938 3.20694e-06 -0.00110258 0.000888803 5.20391e-05 -0.00076972 -0.00114053 -0.00116386 -0.00117455
690.0 -0.00072751 -0.00146148 -0.000733967 0.00109449 3.22851e-06 -0.00109772 0.000884342 5.13952e-05 -0.000766505 -0.00113552 -0.00115866 -0.00116926
691.0 -0.000724225 -0.00145501 -0.000730789 0.00108962 3.28203e-06 -0.0010929 0.000879624 5.0624e-05 -0.000763337 -0.00113054 -0.00115348 -0.001164
692.0 -0.000720924 -0.00144854 -0.000727619 0.00108473 3.3474e-06 -0.00108808 0.00087486 4.98296e-05 -0.000760154 -0.00112554 -0.00114829 -0.00115874
693.0 -0.000717619 -0.00144211 -0.000724486 0.00107986 3.43334e-06 -0.0010833 0.000870005 4.90448e-05 -0.000756945 -0.00112053 -0.0011431 -0.00115347
694.0 -0.000714324 -0.00143572 -0.0007214 0.00107502 3.53812e-06 -0.00107856 0.000864963 4.81935e-05 -0.000753827 -0.00111559 -0.00113795 -0.00114824
695.0 -0.000711041 -0.00142929 -0.00071825 0.00107017 3.60484e-06 -0.00107377 0.000859755 4.71834e-05 -0.00075077 -0.00111066 -0.00113279 -0.00114297
696.0 -0.000707781 -0.0014229 -0.000715117 0.00106534 3.66789e-06 -0.00106901 0.000854347 4.60003e-05 -0.00074782 -0.00110582 -0.00112769 -0.00113777
697.0 -0.000704547 -0.00141645 -0.000711907 0.0010605 3.67967e-06 -0.00106418 0.000848888 4.4756e-05 -0.000744924 -0.00110103 -0.00112263 -0.0011326
698.0 -0.000701333 -0.00140994 -0.000708611 0.00105564 3.63906e-06 -0.00105928 0.000843436 4.35063e-05 -0.000742009 -0.0010962 -0.00111755 -0.0011274
699.0 -0.000698176 -0.00140344 -0.000705261 0.00105081 3.54221e-06 -0.00105435 0.000838159 4.23086e-05 -0.000739095 -0.00109137 -0.00111246 -0.00112219
700.0 -0.000695128 -0.00139705 -0.000701921 0.00104609 3.3961e-06 -0.00104948 0.000833105 4.12457e-05 -0.000736213 -0.00108661 -0.00110744 -0.00111705
701.0 -0.000692151 -0.00139081 -0.000698663 0.00104148 3.25571e-06 -0.00104474 0.00082826 4.01898e-05 -0.000733429 -0.00108196 -0.00110253 -0.00111201
702.0 -0.000689217 -0.00138462 -0.000695406 0.00103692 3.09466e-06 -0.00104001 0.000823662 3.91878e-05 -0.000730697 -0.00107741 -0.00109772 -0.00110707
703.0 -0.000686288 -0.00137842 -0.000692135 0.00103235 2.92364e-06 -0.00103528 0.00081946 3.84637e-05 -0.000727831 -0.00107279 -0.00109291 -0.00110215
704.0 -0.000683323 -0.00137221 -0.000688885 0.00102777 2.78118e-06 -0.00103055 0.00081558 3.79628e-05 -0.000724793 -0.00106808 -0.00108804 -0.0010972
705.0 -0.000680274 -0.00136602 -0.000685743 0.00102315 2.73429e-06 -0.00102588 0.000811817 3.76268e-05 -0.000721646 -0.0010633 -0.00108313 -0.00109222
706.0 -0.00067721 -0.00135997 -0.000682758 0.00101859 2.77404e-06 -0.00102136 0.000808108 3.73478e-05 -0.000718513 -0.00105859 -0.00107829 -0.00108732
707.0 -0.000674262 -0.00135419 -0.000679925 0.00101422 2.83174e-06 -0.00101706 0.00080449 3.6978e-05 -0.000715553 -0.00105407 -0.00107363 -0.0010826
708.0 -0.000671364 -0.00134863 -0.000677265 0.00101 2.95076e-06 -0.00101295 0.000800908 3.65084e-05 -0.000712745 -0.00104972 -0.00106912 -0.00107802
709.0 -0.000668457 -0.00134325 -0.000674796 0.00100585 3.16992e-06 -0.00100902 0.000797261 3.59708e-05 -0.000709996 -0.00104545 -0.00106469 -0.00107354
710.0 -0.000665491 -0.00133785 -0.000672361 0.00100167 3.43544e-06 -0.00100511 0.000793465 3.5426e-05 -0.00070715 -0.00104107 -0.00106017 -0.00106898
711.0 -0.00066256 -0.00133236 -0.000669802 0.000997461 3.62084e-06 -0.00100108 0.000789577 3.48098e-05 -0.000704338 -0.0010367 -0.00105564 -0.00106439
712.0 -0.000659662 -0.00132681 -0.000667144 0.000993234 3.74069e-06 -0.000996975 0.000785638 3.41506e-05 -0.000701555 -0.00103234 -0.00105111 -0.0010598
713.0 -0.000656722 -0.00132118 -0.000664459 0.000988951 3.8689e-06 -0.00099282 0.000781537 3.3376e-05 -0.000698799 -0.00102797 -0.00104656 -0.00105517
714.0 -0.000653747 -0.00131549 -0.000661738 0.000984617 3.99543e-06 -0.000988612 0.000777241 3.25613e-05 -0.000696055 -0.00102359 -0.00104197 -0.00105049
715.0 -0.000650741 -0.00130982 -0.000659082 0.000980282 4.17033e-06 -0.000984453 0.000772978 3.19008e-05 -0.000693283 -0.00101923 -0.00103742 -0.00104586
716.0 -0.000647727 -0.00130411 -0.000656381 0.000975917 4.32713e-06 -0.000980244 0.000768651 3.12242e-05 -0.000690504 -0.00101486 -0.00103286 -0.00104122
717.0 -0.000644793 -0.00129834 -0.000653543 0.000971565 4.37508e-06 -0.00097594 0.000764302 3.0429e-05 -0.000687798 -0.00101052 -0.0010283 -0.00103657
718.0 -0.000641971 -0.0012925 -0.00065053 0.000967236 4.27911e-06 -0.000971515 0.000759889 2.94284e-05 -0.000685238 -0.00100626 -0.00102379 -0.00103193
719.0 -0.000639223 -0.00128665 -0.000647426 0.000962936 4.10162e-06 -0.000967038 0.000755392 2.83024e-05 -0.00068277 -0.00100206 -0.00101933 -0.00102735
720.0 -0.000636544 -0.00128088 -0.000644336 0.000958712 3.89569e-06 -0.000962608 0.000750872 2.70941e-05 -0.000680399 -0.000997941 -0.00101496 -0.00102285
721.0 -0.000633914 -0.00127523 -0.000641316 0.000954572 3.70124e-06 -0.000958273 0.000746221 2.5813e-05 -0.000678138 -0.000993949 -0.00101069 -0.00101844
722.0 -0.00063131 -0.00126965 -0.000638341 0.000950481 3.51527e-06 -0.000953996 0.000741688 2.47038e-05 -0.000675818 -0.000989952 -0.00100645 -0.00101407
723.0 -0.000628724 -0.0012641 -0.000635373 0.00094641 3.32447e-06 -0.000949735 0.000737352 2.38695e-05 -0.000673349 -0.000985881 -0.00100217 -0.00100968
724.0 -0.000626165 -0.00125858 -0.00063241 0.00094237 3.12212e-06 -0.000945492 0.000733052 2.3039e-05 -0.000670847 -0.000981779 -0.000997875 -0.00100529
725.0 -0.000623604 -0.00125305 -0.000629441 0.000938325 2.91859e-06 -0.000941244 0.00072894 2.23644e-05 -0.00066821 -0.000977595 -0.000993535 -0.00100087
726.0 -0.000621018 -0.00124763 -0.000626608 0.000934322 2.79495e-06 -0.000937117 0.000725038 2.18129e-05 -0.000665529 -0.000973427 -0.00098923 -0.000996492
727.0 -0.000618364 -0.0012423 -0.000623936 0.000930332 2.78564e-06 -0.000933118 0.000721158 2.12264e-05 -0.000662873 -0.000969289 -0.000984952 -0.000992152
728.0 -0.00061564 -0.00123695 -0.000621313 0.000926296 2.83647e-06 -0.000929132 0.000717334 2.07193e-05 -0.000660141 -0.000965079 -0.000980609 -0.000987759
729.0 -0.000612869 -0.00123158 -0.000618712 0.000922224 2.92162e-06 -0.000925146 0.000713683 2.03699e-05 -0.000657259 -0.000960753 -0.000976188 -0.000983311
730.0 -0.000610113 -0.00122631 -0.000616199 0.000918213 3.04288e-06 -0.000921256 0.000710189 2.00811e-05 -0.000654428 -0.000956523 -0.00097186 -0.000978956
731.0 -0.000607383 -0.0012212 -0.000613815 0.000914291 3.21567e-06 -0.000917506 0.000706821 1.97988e-05 -0.000651686 -0.00095242 -0.000967654 -0.000974712
732.0 -0.000604684 -0.00121629 -0.000611601 0.000910485 3.45858e-06 -0.000913944 0.000703608 1.95574e-05 -0.000649014 -0.000948452 -0.000963585 -0.00097061
733.0 -0.000601995 -0.00121146 -0.000609463 0.000906726 3.73401e-06 -0.00091046 0.00070031 1.92192e-05 -0.000646411 -0.000944549 -0.000959572 -0.000966555
734.0 -0.000599277 -0.00120665 -0.000607376 0.000902965 4.04944e-06 -0.000907014 0.000696888 1.87786e-05 -0.000643858 -0.000940687 -0.000955585 -0.000962527
735.0 -0.0005966 -0.00120184 -0.000605237 0.000899219 4.31835e-06 -0.000903537 0.000693295 1.81796e-05 -0.000641393 -0.000936871 -0.000951615 -0.0009585
736.0 -0.000594035 -0.00119708 -0.000603047 0.000895558 4.50614e-06 -0.000900065 0.000689717 1.74858e-05 -0.00063907 -0.000933169 -0.000947732 -0.000954541
737.0 -0.000591521 -0.00119236 -0.000600843 0.000891943 4.66062e-06 -0.000896603 0.000686157 1.67785e-05 -0.000636848 -0.000929549 -0.0009439 -0.000950617
738.0 -0.00058904 -0.00118754 -0.000598504 0.000888292 4.73209e-06 -0.000893025 0.000682702 1.62003e-05 -0.000634546 -0.000925858 -0.000940013 -0.000946638
739.0 -0.000586589 -0.00118263 -0.00059604 0.000884609 4.72549e-06 -0.000889335 0.000679242 1.56072e-05 -0.000632221 -0.000922129 -0.0009361 -0.000942634
740.0 -0.00058419 -0.00117756 -0.000593371 0.000880875 4.59046e-06 -0.000885465 0.000675876 1.50433e-05 -0.000629843 -0.000918332 -0.000932129 -0.000938576
741.0 -0.000581803 -0.0011724 -0.000590592 0.000877099 4.3942e-06 -0.000881494 0.000672504 1.44268e-05 -0.000627538 -0.000914587 -0.000928199 -0.00093455
742.0 -0.000579482 -0.00116712 -0.000587637 0.0008733 4.07769e-06 -0.000877378 0.000669135 1.36682e-05 -0.000625346 -0.000910897 -0.000924298 -0.000930535
743.0 -0.000577219 -0.00116185 -0.000584633 0.000869536 3.70659e-06 -0.000873242 0.000665867 1.28621e-05 -0.000623172 -0.000907204 -0.000920398 -0.000926524
744.0 -0.00057495 -0.00115667 -0.000581724 0.000865813 3.38686e-06 -0.000869199 0.000662468 1.19619e-05 -0.000621037 -0.000903539 -0.00091652 -0.000922534
745.0 -0.000572688 -0.00115155 -0.000578864 0.00086212 3.08814e-06 -0.000865208 0.000658937 1.09723e-05 -0.000618944 -0.000899905 -0.000912664 -0.000918563
746.0 -0.000570424 -0.00114655 -0.000576125 0.000858487 2.8504e-06 -0.000861337 0.000655376 1.00559e-05 -0.000616826 -0.000896301 -0.000908863 -0.000914657
747.0 -0.000568124 -0.00114168 -0.000573557 0.000854903 2.71659e-06 -0.000857619 0.000651754 9.17775e-06 -0.000614687 -0.000892721 -0.000905094 -0.000910798
748.0 -0.00056576 -0.00113696 -0.000571196 0.000851359 2.71803e-06 -0.000854077 0.000648134 8.48165e-06 -0.000612478 -0.000889149 -0.000901358 -0.000906992
749.0 -0.000563321 -0.0011323 -0.000568981 0.000847811 2.82986e-06 -0.000850641 0.000644348 7.78491e-06 -0.000610224 -0.000885543 -0.000897601 -0.000903181
750.0 -0.000560841 -0.00112763 -0.000566785 0.000844233 2.97202e-06 -0.000847205 0.000640379 7.01347e-06 -0.000607937 -0.000881883 -0.000893795 -0.000899325
751.0 -0.000558375 -0.00112297 -0.000564591 0.000840671 3.10816e-06 -0.000843779 0.000636418 6.24652e-06 -0.000605673 -0.000878251 -0.000890016 -0.000895491
752.0 -0.000555935 -0.00111833 -0.000562395 0.000837133 3.23023e-06 -0.000840363 0.00063252 5.54833e-06 -0.000603413 -0.00087466 -0.00088628 -0.000891702
753.0 -0.000553502 -0.00111377 -0.000560265 0.000833635 3.38145e-06 -0.000837017 0.000628701 4.94672e-06 -0.000601144 -0.00087111 -0.000882599 -0.000887971
754.0 -0.000551088 -0.00110924 -0.000558155 0.000830166 3.53335e-06 -0.000833699 0.000624987 4.5066e-06 -0.000598814 -0.000867557 -0.000878937 -0.000884265
755.0 -0.000548741 -0.00110475 -0.000556009 0.000826745 3.63433e-06 -0.00083038 0.000621609 4.29189e-06 -0.000596385 -0.000863972 -0.000875276 -0.000880575
756.0 -0.000546432 -0.00110035 -0.000553916 0.00082339 3.74235e-06 -0.000827132 0.000618245 3.9769e-06 -0.000594061 -0.000860477 -0.000871686 -0.000876945
757.0 -0.000544083 -0.00109604 -0.000551955 0.00082006 3.93594e-06 -0.000823996 0.000614835 3.55194e-06 -0.000591824 -0.000857061 -0.00086815 -0.000873358
758.0 -0.000541693 -0.00109183 -0.000550141 0.000816763 4.22426e-06 -0.000820988 0.000611487 3.13669e-06 -0.000589607 -0.000853697 -0.000864672 -0.000869835
759.0 -0.000539334 -0.00108772 -0.000548384 0.000813526 4.52483e-06 -0.000818051 0.000608151 2.68159e-06 -0.000587442 -0.000850401 -0.000861255 -0.000866371
760.0 -0.000537035 -0.00108365 -0.000546612 0.000810341 4.78826e-06 -0.00081513 0.000604953 2.23347e-06 -0.000585314 -0.000847155 -0.000857889 -0.000862956
761.0 -0.000534783 -0.00107951 -0.000544724 0.000807145 4.97029e-06 -0.000812116 0.00060193 1.82592e-06 -0.000583153 -0.000843869 -0.000854485 -0.000859503
762.0 -0.000532578 -0.00107527 -0.000542696 0.000803926 5.05877e-06 -0.000808985 0.00059901 1.49042e-06 -0.000580957 -0.000840537 -0.000851039 -0.000856004
763.0 -0.000530414 -0.00107098 -0.000540563 0.000800695 5.07446e-06 -0.00080577 0.000596162 1.24542e-06 -0.00057874 -0.000837181 -0.000847567 -0.000852476
764.0 -0.000528289 -0.00106658 -0.000538288 0.000797433 4.99935e-06 -0.000802432 0.000593393 1.02013e-06 -0.000576519 -0.000833797 -0.000844063 -0.000848909
765.0 -0.00052624 -0.00106207 -0.000535835 0.000794157 4.7972e-06 -0.000798955 0.000590699 7.24604e-07 -0.000574355 -0.000830416 -0.000840544 -0.000845315
766.0 -0.000524245 -0.00105742 -0.000533173 0.000790831 4.46405e-06 -0.000795295 0.000588138 4.22612e-07 -0.000572149 -0.000826952 -0.000836944 -0.000841637
767.0 -0.000522238 -0.00105251 -0.000530276 0.000787376 4.01936e-06 -0.000791395 0.000585509 4.01633e-08 -0.000569903 -0.000823372 -0.000833218 -0.000837826
768.0 -0.000520243 -0.00104745 -0.000527211 0.000783848 3.48389e-06 -0.000787332 0.000582651 -5.87535e-07 -0.000567761 -0.000819789 -0.00082945 -0.000833952
769.0 -0.000518283 -0.00104263 -0.000524343 0.000780454 3.02981e-06 -0.000783484 0.000579723 -1.33755e-06 -0.000565774 -0.000816378 -0.000825842 -0.000830236
770.0 -0.000516313 -0.00103811 -0.000521795 0.000777211 2.74113e-06 -0.000779952 0.000576921 -2.09814e-06 -0.00056392 -0.000813165 -0.000822427 -0.00082672
771.0 -0.000514338 -0.00103381 -0.00051947 0.000774073 2.56606e-06 -0.000776639 0.000574167 -2.87379e-06 -0.00056214 -0.00081007 -0.000819133 -0.000823336
772.0 -0.000512333 -0.00102958 -0.000517242 0.000770955 2.45443e-06 -0.000773409 0.000571412 -3.66359e-06 -0.000560303 -0.000806936 -0.000815824 -0.000819955
773.0 -0.00051031 -0.00102539 -0.000515085 0.000767852 2.38767e-06 -0.00077024 0.000568582 -4.49981e-06 -0.000558445 -0.000803795 -0.000812522 -0.00081659
774.0 -0.000508246 -0.00102134 -0.000513092 0.000764792 2.42284e-06 -0.000767215 0.000565676 -5.37668e-06 -0.000556655 -0.000800747 -0.000809306 -0.000813308
775.0 -0.000506162 -0.00101739 -0.000511233 0.000761778 2.53537e-06 -0.000764314 0.000562701 -6.28559e-06 -0.000554915 -0.000797771 -0.000806159 -0.000810092
776.0 -0.000504065 -0.00101351 -0.000509449 0.000758789 2.69197e-06 -0.000761481 0.000559705 -7.16003e-06 -0.000553194 -0.000794832 -0.000803047 -0.00080691
777.0 -0.000501934 -0.00100974 -0.000507802 0.000755836 2.93392e-06 -0.00075877 0.000556766 -7.77177e-06 -0.000551386 -0.000791907 -0.00079998 -0.00080379
778.0 -0.000499771 -0.00100597 -0.000506194 0.000752868 3.21161e-06 -0.00075608 0.00055366 -8.35354e-06 -0.000549545 -0.000788973 -0.000796914 -0.00080068
779.0 -0.000497613 -0.00100209 -0.000504481 0.000749854 3.43384e-06 -0.000753288 0.000550504 -8.92244e-06 -0.000547682 -0.000786004 -0.000793816 -0.000797528
780.0 -0.000495493 -0.000998171 -0.000502678 0.000746832 3.59229e-06 -0.000750424 0.000547489 -9.38087e-06 -0.00054578 -0.00078302 -0.000790711 -0.000794369
781.0 -0.000493417 -0.000994251 -0.000500834 0.000743834 3.70854e-06 -0.000747542 0.000544505 -9.77609e-06 -0.000543858 -0.000780046 -0.000787631 -0.000791237
782.0 -0.000491341 -0.000990399 -0.000499058 0.00074087 3.85876e-06 -0.000744729 0.000541437 -1.01188e-05 -0.000541919 -0.000777097 -0.00078459 -0.000788151
783.0 -0.000489281 -0.000986535 -0.000497254 0.000737908 3.98689e-06 -0.000741895 0.000538297 -1.03797e-05 -0.000539899 -0.000774097 -0.000781514 -0.000785041
784.0 -0.000487271 -0.000982761 -0.000495491 0.000735016 4.10981e-06 -0.000739126 0.000535151 -1.06155e-05 -0.000537907 -0.000771147 -0.00077849 -0.000781987
785.0 -0.000485278 -0.000979066 -0.000493788 0.000732172 4.25489e-06 -0.000736427 0.000532004 -1.08345e-05 -0.000535918 -0.000768234 -0.000775512 -0.000778981
786.0 -0.000483303 -0.000975425 -0.000492123 0.000729364 4.40993e-06 -0.000733774 0.000528917 -1.10476e-05 -0.000533925 -0.000765325 -0.000772541 -0.000775986
787.0 -0.000481337 -0.000971864 -0.000490527 0.0007266 4.59515e-06 -0.000731195 0.000525864 -1.12488e-05 -0.000531921 -0.000762425 -0.000769591 -0.000773018
788.0 -0.000479385 -0.000968283 -0.000488897 0.000723834 4.756e-06 -0.00072859 0.000522869 -1.146e-05 -0.000529926 -0.000759518 -0.00076663 -0.000770034
789.0 -0.000477458 -0.000964652 -0.000487194 0.000721055 4.86819e-06 -0.000725923 0.000519867 -1.17875e-05 -0.000528004 -0.000756638 -0.000763674 -0.000767045
790.0 -0.000475567 -0.000960941 -0.000485374 0.000718254 4.90324e-06 -0.000723157 0.000516853 -1.22121e-05 -0.000526157 -0.000753772 -0.000760702 -0.000764021
791.0 -0.000473695 -0.000957157 -0.000483463 0.000715426 4.88401e-06 -0.00072031 0.00051382 -1.26471e-05 -0.000524338 -0.000750898 -0.000757701 -0.000760955
792.0 -0.000471835 -0.000953252 -0.000481417 0.000712544 4.79119e-06 -0.000717335 0.000510869 -1.30217e-05 -0.000522451 -0.000747921 -0.000754592 -0.000757778
793.0 -0.000470006 -0.000949265 -0.00047926 0.000709636 4.62683e-06 -0.000714263 0.000508011 -1.34481e-05 -0.000520576 -0.000744908 -0.000751429 -0.000754537
794.0 -0.000468205 -0.000945245 -0.00047704 0.000706725 4.4179e-06 -0.000711143 0.0005053 -1.38673e-05 -0.000518679 -0.000741871 -0.000748247 -0.000751279
795.0 -0.000466414 -0.000941238 -0.000474824 0.000703826 4.20503e-06 -0.000708031 0.000502705 -1.42814e-05 -0.00051679 -0.000738852 -0.000745083 -0.000748045
796.0 -0.000464614 -0.000937192 -0.000472578 0.000700903 3.98172e-06 -0.000704885 0.000500106 -1.47885e-05 -0.000514962 -0.000735858 -0.000741929 -0.000744816
797.0 -0.000462808 -0.00093296 -0.000470153 0.000697884 3.67255e-06 -0.000701557 0.000497518 -1.53647e-05 -0.00051313 -0.000732795 -0.000738697 -0.000741507
798.0 -0.000460993 -0.000928738 -0.000467746 0.000694865 3.37671e-06 -0.000698242 0.000495018 -1.59252e-05 -0.00051124 -0.000729673 -0.000735423 -0.000738168
799.0 -0.000459205 -0.000924637 -0.000465433 0.000691921 3.11391e-06 -0.000695035 0.000492557 -1.65429e-05 -0.000509451 -0.000726658 -0.000732242 -0.000734916
800.0 -0.000457447 -0.000920664 -0.000463216 0.000689055 2.88468e-06 -0.00069194 0.000490148 -1.71634e-05 -0.000507731 -0.000723739 -0.000729162 -0.000731761
801.0 -0.000455696 -0.000916825 -0.000461129 0.000686261 2.71684e-06 -0.000688977 0.000487677 -1.78409e-05 -0.000506082 -0.000720919 -0.000726178 -0.000728703
802.0 -0.00045396 -0.000913118 -0.000459158 0.000683539 2.59889e-06 -0.000686138 0.00048528 -1.84959e-05 -0.000504473 -0.000718181 -0.000723284 -0.000725736
803.0 -0.000452184 -0.000909585 -0.000457401 0.000680885 2.60866e-06 -0.000683493 0.000482968 -1.90725e-05 -0.000502878 -0.000715534 -0.000720497 -0.000722891
804.0 -0.000450416 -0.000906128 -0.000455712 0.000678272 2.64776e-06 -0.00068092 0.000480714 -1.9658e-05 -0.000501297 -0.000712911 -0.000717738 -0.000720074
805.0 -0.000448706 -0.000902685 -0.000453978 0.000675695 2.63604e-06 -0.000678331 0.000478528 -2.03044e-05 -0.000499761 -0.000710308 -0.000714991 -0.000717259
806.0 -0.000447021 -0.000899312 -0.000452291 0.000673167 2.63476e-06 -0.000675802 0.000476251 -2.1063e-05 -0.000498308 -0.000707784 -0.000712312 -0.000714505
807.0 -0.000445353 -0.000896119 -0.000450766 0.000670736 2.7066e-06 -0.000673442 0.000473997 -2.1806e-05 -0.000496925 -0.000705388 -0.000709772 -0.000711898
808.0 -0.000443716 -0.000893026 -0.00044931 0.000668371 2.79699e-06 -0.000671168 0.000471865 -2.24463e-05 -0.000495522 -0.000703039 -0.000707301 -0.00070937
809.0 -0.000442101 -0.000889961 -0.00044786 0.000666031 2.87937e-06 -0.000668911 0.000469909 -2.28796e-05 -0.000494051 -0.000700693 -0.000704865 -0.000706889
810.0 -0.000440457 -0.000886883 -0.000446426 0.00066367 2.98436e-06 -0.000666654 0.000468046 -2.30807e-05 -0.000492478 -0.000698313 -0.000702424 -0.000704416
811.0 -0.000438755 -0.000883775 -0.00044502 0.000661265 3.13279e-06 -0.000664398 0.000466053 -2.32865e-05 -0.000490862 -0.000695899 -0.000699953 -0.000701918
812.0 -0.000436999 -0.000880609 -0.00044361 0.000658804 3.30539e-06 -0.000662109 0.000463997 -2.34762e-05 -0.000489191 -0.000693441 -0.000697447 -0.000699395
813.0 -0.000435236 -0.000877443 -0.000442208 0.000656339 3.48616e-06 -0.000659826 0.000461938 -2.36528e-05 -0.000487527 -0.000691 -0.000694959 -0.000696887
814.0 -0.000433465 -0.000874264 -0.000440799 0.000653864 3.66727e-06 -0.000657531 0.000459891 -2.37639e-05 -0.000485827 -0.000688542 -0.00069246 -0.000694372
815.0 -0.000431691 -0.000871053 -0.000439362 0.000651372 3.83544e-06 -0.000655208 0.000457808 -2.37954e-05 -0.000484068 -0.000686036 -0.000689922 -0.00069182
816.0 -0.000429945 -0.000867792 -0.000437848 0.000648868 3.95153e-06 -0.00065282 0.000455625 -2.37918e-05 -0.000482269 -0.00068348 -0.000687334 -0.00068922
817.0 -0.000428266 -0.000864568 -0.000436302 0.000646417 4.01783e-06 -0.000650435 0.000453381 -2.38021e-05 -0.000480497 -0.000680944 -0.000684764 -0.000686633
818.0 -0.000426618 -0.000861391 -0.000434773 0.000644005 4.07739e-06 -0.000648082 0.000451033 -2.39107e-05 -0.000478827 -0.000678489 -0.000682253 -0.000684095
819.0 -0.000425008 -0.000858266 -0.000433259 0.000641637 4.12564e-06 -0.000645763 0.000448564 -2.4135e-05 -0.000477259 -0.00067611 -0.000679791 -0.000681593
820.0 -0.000423386 -0.000855129 -0.000431743 0.000639258 4.17846e-06 -0.000643436 0.000445983 -2.43886e-05 -0.000475676 -0.000673697 -0.000677297 -0.000679061
821.0 -0.000421713 -0.00085188 -0.000430167 0.000636796 4.22724e-06 -0.000641023 0.0004432 -2.46825e-05 -0.000474025 -0.000671182 -0.000674697 -0.00067642
822.0 -0.000420024 -0.000848528 -0.000428503 0.000634276 4.23963e-06 -0.000638515 0.000440217 -2.50967e-05 -0.000472381 -0.000668607 -0.000672014 -0.000673686
823.0 -0.000418325 -0.000845072 -0.000426747 0.000631699 4.21111e-06 -0.00063591 0.000437221 -2.54408e-05 -0.00047064 -0.000665939 -0.000669251 -0.000670876
824.0 -0.00041659 -0.000841623 -0.000425033 0.000629106 4.22126e-06 -0.000633328 0.00043418 -2.57321e-05 -0.00046889 -0.000663261 -0.000666467 -0.000668047
825.0 -0.000414831 -0.000838106 -0.000423275 0.000626469 4.22177e-06 -0.00063069 0.000431149 -2.59902e-05 -0.00046709 -0.000660507 -0.000663606 -0.000665142
826.0 -0.000413077 -0.00083453 -0.000421453 0.000623803 4.18777e-06 -0.000627991 0.000428149 -2.63037e-05 -0.000465254 -0.00065768 -0.000660672 -0.000662168
827.0 -0.000411347 -0.000830938 -0.000419591 0.000621143 4.12164e-06 -0.000625264 0.000425196 -2.67064e-05 -0.000463433 -0.000654838 -0.000657719 -0.000659179
828.0 -0.000409672 -0.0008274 -0.000417728 0.000618536 4.02755e-06 -0.000622564 0.000422204 -2.72673e-05 -0.000461771 -0.00065212 -0.00065486 -0.000656265
829.0 -0.00040802 -0.000823919 -0.000415899 0.000615969 3.93938e-06 -0.000619909 0.0004192 -2.79411e-05 -0.000460238 -0.000649517 -0.000652094 -0.000653432
830.0 -0.000406399 -0.000820353 -0.000413954 0.000613376 3.77731e-06 -0.000617153 0.000416208 -2.8745e-05 -0.000458826 -0.000646981 -0.000649366 -0.000650618
831.0 -0.000404802 -0.000816856 -0.000412054 0.000610829 3.62581e-06 -0.000614455 0.000413319 -2.95896e-05 -0.000457503 -0.000644539 -0.00064672 -0.000647882
832.0 -0.000403224 -0.000813526 -0.000410302 0.000608375 3.53901e-06 -0.000611914 0.000410636 -3.03614e-05 -0.00045621 -0.000642187 -0.00064418 -0.00064526
833.0 -0.000401721 -0.000810296 -0.000408575 0.000606008 3.42673e-06 -0.000609435 0.000408117 -3.11111e-05 -0.00045496 -0.000639893 -0.000641703 -0.000642699
834.0 -0.000400286 -0.000807159 -0.000406873 0.000603723 3.29364e-06 -0.000607016 0.000405671 -3.19029e-05 -0.000453783 -0.000637681 -0.000639304 -0.00064021
835.0 -0.000398888 -0.00080412 -0.000405232 0.000601504 3.17227e-06 -0.000604676 0.000403391 -3.26079e-05 -0.000452602 -0.000635516 -0.000636969 -0.000637792
836.0 -0.000397519 -0.00080117 -0.000403651 0.000599344 3.0662e-06 -0.00060241 0.000401296 -3.31925e-05 -0.000451391 -0.000633382 -0.000634692 -0.000635442
837.0 -0.000396182 -0.000798282 -0.0004021 0.000597232 2.95941e-06 -0.000600191 0.000399376 -3.37275e-05 -0.000450178 -0.000631272 -0.000632453 -0.000633138
838.0 -0.000394856 -0.000795417 -0.000400561 0.000595137 2.85247e-06 -0.000597989 0.00039759 -3.41837e-05 -0.000448917 -0.000629145 -0.000630219 -0.000630847
839.0 -0.000393537 -0.000792621 -0.000399084 0.000593079 2.77358e-06 -0.000595852 0.000395943 -3.45393e-05 -0.000447601 -0.00062702 -0.000628014 -0.000628601
840.0 -0.000392231 -0.000789891 -0.00039766 0.000591061 2.71425e-06 -0.000593775 0.000394411 -3.48276e-05 -0.000446269 -0.000624922 -0.000625854 -0.000626407
841.0 -0.000390922 -0.000787309 -0.000396387 0.000589115 2.73278e-06 -0.000591848 0.000392951 -3.50707e-05 -0.000444972 -0.000622917 -0.000623799 -0.000624325
842.0 -0.000389644 -0.000784806 -0.000395162 0.000587225 2.75877e-06 -0.000589984 0.00039164 -3.52425e-05 -0.000443664 -0.00062095 -0.000621798 -0.000622303
843.0 -0.000388403 -0.000782387 -0.000393984 0.000585395 2.79052e-06 -0.000588185 0.0003904 -3.54517e-05 -0.000442396 -0.000619031 -0.000619847 -0.000620331
844.0 -0.000387143 -0.000779981 -0.000392838 0.000583562 2.84734e-06 -0.00058641 0.000388998 -3.58199e-05 -0.000441172 -0.000617128 -0.000617898 -0.000618357
845.0 -0.000385843 -0.000777506 -0.000391663 0.000581675 2.90986e-06 -0.000584584 0.000387522 -3.62559e-05 -0.000439944 -0.000615194 -0.000615905 -0.000616336
846.0 -0.000384513 -0.000775025 -0.000390512 0.000579769 2.99933e-06 -0.000582768 0.000386033 -3.66519e-05 -0.000438693 -0.000613257 -0.000613914 -0.000614318
