0.0      0      0      0      0      0      0      0      0      0      0      0      0
1.0 -0.00732776 -0.00958663 -0.00225887 0.0084572 -0.00253444 -0.00592275 0.0154715 0.00101389 -0.00476472 -0.00621866 -0.00628833 -0.00630683
2.0 -0.0199163 -0.0252236 -0.00530723 0.02257 -0.00730456 -0.0152654 0.0407726 0.00149615 -0.0131532 -0.0165786 -0.0166416 -0.0166104
3.0 -0.0361287 -0.0400124 -0.00388375 0.0380705 -0.0161225 -0.0219481 0.0737938 0.00257948 -0.0204393 -0.0253311 -0.0255998 -0.0255062
4.0 -0.0402896 -0.0403972 -0.000107679 0.0403434 -0.0200909 -0.0202525 0.0837317 0.00358779 -0.0199538 -0.0246438 -0.0251029 -0.0250052
5.0 -0.0532353 -0.0650152 -0.0117799 0.0591252 -0.0207277 -0.0383975 0.0444323 -0.0391212 -0.0513909 -0.0493005 -0.0447616 -0.0423779
6.0 -0.0296052 -0.0310855 -0.00148035 0.0303454 -0.0140624 -0.0162829 0.028997 -0.0218873 -0.0269144 -0.0247637 -0.0220581 -0.0206224
7.0 -0.0019273 0.0156602 0.0175875 -0.00686646 -0.00975741 0.0166239 0.0217299 0.00912981 0.0109714 0.0120078 0.0111086 0.0108775
8.0 0.00678119 0.0223061 0.0155249 -0.0145436 -0.00437184 0.0189155 0.010155 0.0131503 0.0156657 0.0159543 0.0148072 0.0143271
9.0 0.00117028 0.0174033 0.016233 -0.00928679 -0.00753137 0.0168182 0.0115494 0.00519522 0.00869979 0.0110112 0.0109188 0.0110823
10.0 -7.61561e-05 0.0141276 0.0142037 -0.0070257 -0.00713994 0.0141656 0.00685534 0.000664818 0.00471361 0.00794031 0.00858911 0.00910985
11.0 -0.00364209 0.0103912 0.0140333 -0.00337454 -0.00883769 0.0122122 0.00152254 -0.00655108 -0.000924068 0.00402246 0.00573581 0.00682075
12.0 -0.00942141 0.00561088 0.0150323 0.00190527 -0.0122269 0.0103216 -0.00148695 -0.0154956 -0.00724014 -0.000110244 0.00273541 0.00444869
13.0 -0.0128303 0.00292445 0.0157548 0.00495294 -0.0142926 0.00933962 0.00464248 -0.0167543 -0.00990531 -0.00222994 0.00105532 0.00305055
14.0 -0.0156972 0.00130222 0.0169994 0.0071975 -0.0163483 0.00915083 0.0132552 -0.0173709 -0.0116166 -0.0032947 0.00033686 0.00257903
15.0 -0.0173955 0.00566296 0.0230585 0.00586626 -0.020227 0.0143607 0.0236556 -0.0159889 -0.00958826 4.98069e-05 0.00378202 0.00623075
16.0 -0.0189601 0.0120428 0.0310029 0.00345865 -0.0249815 0.0215229 0.035047 -0.0144864 -0.00614503 0.00519513 0.0089211 0.0115537
17.0 -0.0182565 0.0170315 0.035288 0.00061251 -0.0267723 0.0261598 0.0417295 -0.0154596 -0.00476853 0.00822398 0.0122429 0.0151252
18.0 -0.0195845 0.021928 0.0415125 -0.00117174 -0.0305485 0.0317203 0.0468589 -0.0201376 -0.00538872 0.0106535 0.0155265 0.0190015
19.0 -0.0213567 0.0211762 0.0425329 9.02903e-05 -0.0319448 0.0318545 0.0492296 -0.0295181 -0.0110354 0.00813027 0.0145623 0.0188484
20.0 -0.021301 0.0213117 0.0426127 -5.37024e-06 -0.0319569 0.0319622 0.0576648 -0.0349891 -0.0146098 0.00652432 0.0140255 0.0188391
21.0 -0.0219344 0.0208694 0.0428038 0.00053248 -0.0323691 0.0318366 0.0684862 -0.0358442 -0.0169735 0.00494227 0.0131349 0.0182811
22.0 -0.021176 0.0260562 0.0472323 -0.00244009 -0.0342042 0.0366442 0.0845368 -0.0356144 -0.0173022 0.00610165 0.0149631 0.0205027
23.0 -0.0158729 0.0371577 0.0530306 -0.0106424 -0.0344517 0.0450942 0.100849 -0.0292246 -0.0119274 0.0119421 0.0205914 0.0260861
24.0 -0.0102533 0.0487266 0.0589798 -0.0192367 -0.0346165 0.0538532 0.103369 -0.030773 -0.00989181 0.0165766 0.025896 0.0318006
25.0 0.00221072 0.0638057 0.061595 -0.0330082 -0.0296921 0.0627003 0.0888532 -0.0326 -0.00699331 0.021793 0.0318438 0.0380715
26.0 0.0155691 0.0830394 0.0674703 -0.0493043 -0.0259506 0.0752549 0.0631643 -0.0251703 0.00230275 0.0316429 0.0412453 0.0472513
27.0 0.0354182 0.100484 0.0650657 -0.067951 -0.0148237 0.0827748 0.049489 -0.00253529 0.0175386 0.042559 0.0500529 0.0548792
28.0 0.0517404 0.121309 0.0695689 -0.0865248 -0.00891427 0.0954391 0.0630141 0.0281223 0.0378677 0.0578591 0.0622734 0.065604
29.0 0.0683469 0.139183 0.0708362 -0.103765 -0.00124462 0.10501 0.0459607 0.0395512 0.0506407 0.0695841 0.0727857 0.0754269
30.0 0.0819285 0.157196 0.0752671 -0.119562 0.00333068 0.116231 0.0184565 0.0487071 0.0649643 0.0834442 0.085157 0.0869991
31.0 0.090752 0.175809 0.0850568 -0.13328 0.00284758 0.130433 0.00437881 0.0601526 0.0786232 0.0971024 0.0972901 0.0985305
32.0 0.0948468 0.187278 0.0924316 -0.141063 0.00120764 0.139855 0.00639905 0.071156 0.0874694 0.105012 0.103907 0.104674
33.0 0.10161 0.198433 0.0968228 -0.150022 0.00239382 0.147628 -0.0204203 0.0721987 0.0933993 0.112238 0.111005 0.111729
34.0 0.106833 0.208889 0.102056 -0.157861 0.00238829 0.155473 -0.0491526 0.0684378 0.0969567 0.118052 0.117144 0.118063
35.0 0.113142  0.221 0.107858 -0.167071 0.00264221 0.164429 -0.0768699 0.0679825 0.103704 0.126303 0.125199 0.126026
36.0 0.120149 0.227521 0.107371 -0.173835 0.00638908 0.167446 -0.12267 0.0584127 0.103406 0.128415 0.128165 0.129293
37.0 0.121856 0.235284 0.113428 -0.17857 0.00421393 0.174356 -0.152046 0.0486305 0.103504 0.13244 0.133191 0.134894
38.0 0.128234 0.243771 0.115537 -0.186003 0.00634865 0.179654 -0.158059 0.0604274 0.113335 0.140067 0.139527 0.140617
39.0 0.138767 0.241565 0.102799 -0.190166 0.017984 0.172182 -0.184659 0.0591017 0.112536 0.137585 0.137558 0.138487
40.0 0.146956 0.240772 0.093816 -0.193864 0.0265698 0.167294 -0.227011 0.0449342 0.107741 0.134473 0.135829 0.137072
41.0 0.150553 0.243822 0.093269 -0.197187 0.0286418 0.168545 -0.237621 0.0453791 0.110427 0.13798 0.139521 0.140906
42.0 0.153331 0.256596 0.103265 -0.204963 0.0250329 0.179931 -0.237533 0.0545424 0.121775 0.150828 0.151513 0.152683
43.0 0.153743 0.26435 0.110607 -0.209047 0.021568 0.187479 -0.243123 0.0620194 0.130729 0.160803 0.160602 0.161507
44.0 0.156583 0.273322 0.11674 -0.214952 0.0199215 0.195031 -0.248138 0.0690283 0.138979 0.169911 0.169074 0.169715
45.0 0.164934 0.286256 0.121322 -0.225595 0.0218062 0.203789 -0.270828 0.064004 0.142772 0.176972 0.17666 0.177503
46.0 0.169942 0.293468 0.123527 -0.231705 0.0232076 0.208497 -0.284176 0.0617153 0.143247 0.179734 0.180232 0.181432
47.0 0.172096 0.29618 0.124084 -0.234138 0.0240058 0.210132 -0.283797 0.0635529 0.142791 0.18039 0.181578 0.183117
48.0 0.173565 0.298561 0.124995 -0.236063 0.0242851 0.211778 -0.27545 0.0687348 0.142875 0.180763 0.182354 0.184148
49.0 0.174207 0.296523 0.122316 -0.235365 0.0259452 0.20942 -0.274977 0.0686289 0.138176 0.176929 0.179666 0.181988
50.0 0.175583 0.292909 0.117326 -0.234246 0.0291285 0.205118 -0.274563 0.0745608 0.13846 0.174773 0.177061 0.178972
51.0 0.173364 0.293035 0.119671 -0.233199 0.0268464 0.206353 -0.262495 0.0717943 0.134023 0.171545 0.174369 0.176692
52.0 0.170177 0.293526 0.123349 -0.231851 0.0234138 0.208437 -0.266514 0.0594623 0.127774 0.169842 0.174321 0.177704
53.0 0.162896 0.291465 0.128569 -0.22718 0.0171635 0.210017 -0.296888 0.0328703 0.11523 0.16533 0.173234 0.178473
54.0 0.150123 0.286871 0.136749 -0.218497 0.00668691 0.21181 -0.321204 -0.00776826 0.0960749 0.156409 0.16854 0.176114
55.0 0.143264 0.27886 0.135596 -0.211062 0.00383394 0.207228 -0.371979 -0.0677121 0.0674746 0.142076 0.160988 0.171825
56.0 0.146545 0.269357 0.122812 -0.207951 0.0118662 0.196085 -0.429862 -0.100817 0.0520237 0.133933 0.157479 0.170183
57.0 0.15261 0.277576 0.124966 -0.215093 0.0138221 0.201271 -0.451054 -0.121329 0.0487831 0.13798 0.164084 0.177835
58.0 0.161177 0.296114 0.134937 -0.228645 0.0131201 0.215525 -0.45523 -0.136295 0.0531319 0.149117 0.176327 0.190482
59.0 0.166803 0.307745 0.140942 -0.237274 0.0129308 0.224343 -0.455831 -0.144934 0.0589964 0.158194 0.185255 0.19927
60.0 0.170906 0.315998 0.145092 -0.243452 0.012907 0.230545 -0.460152 -0.153402 0.0600359 0.163436 0.191479 0.205918
61.0 0.176299 0.319184 0.142884 -0.247741 0.0167074 0.231034 -0.45691 -0.156509 0.0627116 0.168329 0.196823 0.211262
62.0 0.175731 0.307647 0.131916 -0.241689 0.0219079 0.219781 -0.447354 -0.160988 0.0545235 0.159702 0.189427 0.204377
63.0 0.179314 0.292532 0.113218 -0.235923 0.033048 0.202875 -0.426157 -0.156017 0.0521253 0.152638 0.181611 0.195709
64.0 0.18701 0.281841 0.0948317 -0.234425 0.046089 0.188336 -0.410781 -0.153358 0.0539524 0.150899 0.178575 0.191399
65.0 0.192873 0.269507 0.0766336 -0.23119 0.0581198 0.17307 -0.390937 -0.138214 0.0613308 0.151515 0.176505 0.187384
66.0 0.193656 0.246237 0.0525804 -0.219946 0.0705379 0.149408 -0.369547 -0.124365 0.0655315 0.148195 0.170604 0.179679
67.0 0.192825 0.225141 0.0323165 -0.208983 0.080254 0.128729 -0.348439 -0.118181 0.0672153 0.145294 0.166231 0.174079
68.0 0.186605 0.203695 0.01709 -0.19515 0.0847577 0.110393 -0.326776 -0.118831 0.0672653 0.141375 0.161103 0.167744
69.0 0.181024 0.183631 0.0026072 -0.182327 0.0892082 0.093119 -0.323639 -0.146425 0.0521217 0.128898 0.151664 0.159268
70.0 0.177422 0.183704 0.00628249 -0.180563 0.0855696 0.0949934 -0.307909 -0.148247 0.0611488 0.136934 0.158369 0.164993
71.0 0.178951 0.183032 0.00408068 -0.180992 0.0874353 0.0935564 -0.301698 -0.152601 0.0661578 0.14276 0.16429 0.170596
72.0 0.18026 0.186274 0.00601409 -0.183267 0.0871231 0.0961442 -0.293866 -0.150053 0.0733824 0.1518 0.173528 0.17976
73.0 0.177426 0.188327 0.010901 -0.182876 0.0832624 0.0996139 -0.28309 -0.150689 0.0767295 0.160261 0.183685 0.190536
74.0 0.175595 0.182305 0.0067096 -0.17895 0.0844428 0.0945072 -0.277249 -0.15772 0.0731243 0.161572 0.187831 0.195563
75.0 0.172335 0.181124 0.00878836 -0.17673 0.0817735 0.0949561 -0.272174 -0.164073 0.0676539 0.160681 0.189516 0.198365
76.0 0.169944 0.185428 0.0154844 -0.177686 0.0772297 0.100456 -0.261174 -0.158223 0.0714244 0.165927 0.195254 0.204342
77.0 0.168406 0.185434 0.0170286 -0.17692 0.0756885 0.101231 -0.250947 -0.148129 0.0756356 0.167546 0.196046 0.204632
78.0 0.169501 0.190073 0.0205726 -0.179787 0.074464 0.105323 -0.239192 -0.138899 0.0809246 0.172152 0.200575 0.208988
79.0 0.171497 0.195259 0.0237612 -0.183378 0.073868 0.10951 -0.233009 -0.138732 0.0836902 0.178864 0.208595 0.217279
80.0 0.169848 0.199042 0.0291944 -0.184445 0.0703267 0.114118 -0.226324 -0.138598 0.0868684 0.185838 0.21645 0.225308
81.0 0.166756 0.202811 0.0360557 -0.184784 0.06535 0.119434 -0.222065 -0.142928 0.0838906 0.187863 0.220532 0.230264
82.0 0.16387 0.206561 0.0426907 -0.185216 0.0605899 0.124626 -0.217233 -0.141289 0.0847149 0.19126 0.225065 0.235278
83.0 0.164643 0.205012 0.0403696 -0.184827 0.0621365 0.122691 -0.213751 -0.139111 0.0856879 0.192762 0.227286 0.237573
84.0 0.167006 0.201459 0.0344532 -0.184233 0.0662764 0.117956 -0.217317 -0.14728 0.0765624 0.18769 0.225389 0.236902
85.0 0.163925 0.201153 0.0372283 -0.182539 0.0633482 0.119191 -0.218946 -0.154726 0.0711522 0.187322 0.227308 0.239759
86.0 0.152767 0.203254 0.0504869 -0.178011 0.0511402 0.126871 -0.213622 -0.160358 0.0650641 0.187234 0.228806 0.242333
87.0 0.135892 0.202817 0.0669252 -0.169355 0.0344835 0.134871 -0.198113 -0.160084 0.0509062 0.177053 0.220165 0.23595
88.0 0.126079 0.203652 0.0775731 -0.164865 0.0242528 0.140612 -0.187937 -0.154882 0.046129 0.17319 0.216611 0.233523
89.0 0.122646 0.201989 0.0793437 -0.162317 0.0216509 0.140667 -0.183279 -0.149088 0.0460846 0.170884 0.213658 0.230563
90.0 0.120507 0.203405 0.0828984 -0.161956 0.0188042 0.143152 -0.177575 -0.140966 0.0514245 0.173947 0.215225 0.231348
91.0 0.118637 0.199525 0.0808886 -0.159081 0.0188741 0.140207 -0.172612 -0.133058 0.0558242 0.174402 0.213391 0.227987
92.0 0.118829 0.187619 0.0687895 -0.153224 0.0250198 0.128204 -0.166042 -0.120928 0.0617476 0.173146 0.208716 0.221076
93.0 0.119098 0.173472 0.0543739 -0.146285 0.0323623 0.113923 -0.160225 -0.110641 0.0637547 0.16742 0.200508 0.21128
94.0 0.124538 0.158168 0.0336309 -0.141353 0.0454533 0.0958997 -0.166405 -0.115004 0.0553328 0.15663 0.191018 0.201649
95.0 0.11896 0.149246 0.0302859 -0.134103 0.0443372 0.089766 -0.158436 -0.107469 0.055261 0.15176 0.184557 0.194233
96.0 0.115158 0.137499 0.0223412 -0.126329 0.0464085 0.0799203 -0.153649 -0.108897 0.0423746 0.135629 0.169173 0.179132
97.0 0.112269 0.118465 0.00619622 -0.115367 0.0530363 0.0623306 -0.154241 -0.113314 0.0251644 0.11396 0.148387 0.158834
98.0 0.105491 0.107368 0.00187729 -0.10643 0.0518068 0.0546227 -0.144325 -0.107918 0.0195693 0.103196 0.135788 0.14532
99.0 0.0917426 0.0997401 0.00799749 -0.0957414 0.0418726 0.0538688 -0.128239 -0.0982548 0.0152407 0.0937126 0.123669 0.13296
100.0 0.0736401 0.0941709 0.0205308 -0.0839055 0.0265546 0.0573509 -0.104828 -0.079243 0.0181107 0.0870211 0.11163 0.119775
101.0 0.0562604 0.0871428 0.0308825 -0.0717016 0.0126889 0.0590127 -0.079456 -0.0531637 0.0269017 0.0824195 0.0997024 0.105634
102.0 0.0371134 0.0813554 0.0442421 -0.0592344 -0.00356434 0.0627987 -0.0519509 -0.0266642 0.0352089 0.0780247 0.0885793 0.0929535
103.0 0.0174292 0.0710103 0.0535812 -0.0442197 -0.018076 0.0622958 -0.0321038 -0.012052 0.0273861 0.0598238 0.0676704 0.0728968
104.0 0.00441952 0.0583703 0.0539508 -0.0313949 -0.0247656 0.0561605 -0.0215611 -0.00700841 0.0126858 0.0385685 0.0466095 0.0536765
105.0 0.000406876 0.0538386 0.0534317 -0.0271227 -0.0265124 0.0536351 -0.0211312 -0.0105939 0.00911678 0.0345304 0.0424076 0.0491612
106.0 -0.00336439 0.052608 0.0559724 -0.0246218 -0.0296684 0.0542902 -0.0195875 -0.0124473 0.00796455 0.0331702 0.0404239 0.0469084
107.0 -0.00391379 0.0498021 0.0537159 -0.0229441 -0.0288148 0.051759 -0.0218787 -0.0157739 0.0053056 0.0301904 0.0375124 0.0439233
108.0 -0.00170484 0.0434851 0.0451899 -0.0208901 -0.0234474 0.0443375 -0.0272762 -0.0200967 0.000710324 0.024028 0.031539 0.0377225
109.0 -0.00118568 0.0379486 0.0391343 -0.0183815 -0.02016 0.0385415 -0.029559 -0.0224381 -0.00246995 0.0191106 0.0263181 0.0321044
110.0 0.000426285 0.0237636 0.0233374 -0.012095 -0.0114555 0.0235505 -0.0274938 -0.0157967 -0.00168904 0.0115559 0.0156861 0.0190593
111.0 0.00184536 0.018497 0.0166516 -0.0101712 -0.00740314 0.0175743 -0.0199758 -0.00208717 0.00837773 0.0143253 0.0142758 0.0145429
112.0 0.0021511 0.0192395 0.0170884 -0.0106953 -0.00746867 0.018164 -0.0197336 -0.000196222 0.0112099 0.0163928 0.0155465 0.0151535
113.0 0.00283858 0.0201344 0.0172958 -0.0114865 -0.00722861 0.0187151 -0.0247513 -0.00605206 0.00776707 0.0150126 0.015432 0.0157008
114.0 0.00410104 0.0204098 0.0163087 -0.0122554 -0.00610385 0.0183593 -0.0312259 -0.013927 0.00258395 0.0125922 0.0149378 0.016241
115.0 0.00411868 0.0202646 0.0161459 -0.0121916 -0.00601362 0.0182053 -0.0348547 -0.018959 -0.000745216 0.0109023 0.0143546 0.0162683
116.0 0.00390526 0.0199943 0.016089 -0.0119498 -0.00609188 0.0180417 -0.0380775 -0.0240248 -0.004384 0.00895054 0.0135952 0.0161687
117.0 0.00413928 0.0177192 0.0135799 -0.0109292 -0.0047203 0.0156495 -0.0390728 -0.0255147 -0.00590917 0.00714662 0.0120265 0.014645
118.0 0.00482565 0.014902 0.0100763 -0.00986381 -0.00262534 0.0124892 -0.0403319 -0.0269801 -0.00755011 0.00504988 0.0102 0.0128184
119.0 0.00622104 0.0121367 0.00591568 -0.00917888 0.000152677 0.0090262 -0.0413764 -0.0273219 -0.00807915 0.00357047 0.00869926 0.0110862
120.0 0.00593601 0.0102547 0.0043187 -0.00809537 0.000808655 0.00728671 -0.041442 -0.0282499 -0.00949162 0.0017694 0.007039 0.00945602
121.0 0.00619047 0.00635603 0.000165557 -0.00627325 0.00301246 0.00326079 -0.0410356 -0.0277464 -0.0101932 -0.000481001 0.00453203 0.00668291
122.0 0.00510451 0.00345199 -0.00165251 -0.00427825 0.00337851 0.00089974 -0.0386995 -0.0260055 -0.0099658 -0.00184896 0.00254543 0.00436472
123.0 0.0043902 0.00321183 -0.00117836 -0.00380101 0.00278428 0.00101674 -0.036925 -0.0250465 -0.00925009 -0.00140747 0.00270245 0.00439264
124.0 0.00437079 0.00334997 -0.00102082 -0.00386038 0.00269581 0.00116457 -0.0366536 -0.025551 -0.00928778 -0.000990492 0.00328768 0.0050506
125.0 0.00430737 0.00346755 -0.000839817 -0.00388746 0.00257359 0.00131387 -0.0362012 -0.025819 -0.00919712 -0.000554731 0.003822 0.00562636
126.0 0.00404843 0.00344368 -0.000604754 -0.00374605 0.00232659 0.00141946 -0.0357752 -0.0262583 -0.00934823 -0.000364674 0.00413102 0.0059913
127.0 0.0037772 0.00308173 -0.000695472 -0.00342947 0.00223634 0.00119313 -0.0352899 -0.0265742 -0.00954753 -0.000366444 0.00421994 0.00611691
128.0 0.0034381 0.00259294 -0.000845158 -0.00301552 0.00214163 0.000873891 -0.0346163 -0.026739 -0.00973549 -0.000454434 0.0041867 0.00610436
129.0 0.00306699 0.00217084 -0.000896145 -0.00261891 0.00198157 0.000637349 -0.0338268 -0.0267824 -0.00984475 -0.000502327 0.00415725 0.0060813
130.0 0.00265456 0.00167296 -0.000981592 -0.00216376 0.00181807 0.000345685 -0.0329961 -0.0267951 -0.0099879 -0.000624087 0.00404377 0.00597013
131.0 0.00220654 0.00110795 -0.00109859 -0.00165725 0.00165256 4.68321e-06 -0.0321309 -0.0267788 -0.0101611 -0.000812025 0.00385494 0.00577997
132.0 0.00172604 0.000485138 -0.0012409 -0.00110559 0.00148347 -0.000377883 -0.031236 -0.0267375 -0.0103615 -0.00105922 0.00359862 0.00551912
133.0 0.00121633 -0.000188302 -0.00140464 -0.000514016 0.00131049 -0.000796469 -0.030313 -0.0266724 -0.0105859 -0.00135949 0.00328138 0.00519442
134.0 0.000680049 -0.000905902 -0.00158595 0.000112926 0.001133 -0.00124593 -0.0293642 -0.026584 -0.0108312 -0.00170745 0.00290916 0.00481202
135.0 0.000120161 -0.00166361 -0.00178377 0.000771723 0.000951965 -0.00172369 -0.0283928 -0.0264733 -0.0110951 -0.00209893 0.00248659 0.00437675
136.0 -0.000461183 -0.00245683 -0.00199565 0.00145901 0.000767232 -0.00222624 -0.0274033 -0.0263422 -0.0113757 -0.00252978 0.00201845 0.00389361
137.0 -0.00106161 -0.00328171 -0.0022201 0.00217166 0.000579241 -0.0027509 -0.0263975 -0.0261933 -0.0116721 -0.00299687 0.00150849 0.00336667
138.0 -0.00167854 -0.00413454 -0.00245599 0.00290654 0.000388724 -0.00329526 -0.0253787 -0.0260276 -0.0119828 -0.00349699 0.000960406 0.00279988
139.0 -0.00231044 -0.00501258 -0.00270213 0.00366151 0.000195845 -0.00385736 -0.0243479 -0.0258465 -0.0123066 -0.00402741 0.000377459 0.00219661
140.0 -0.00295506 -0.00591215 -0.00295709 0.0044336 1.01654e-06 -0.00443462 -0.0233085 -0.0256506 -0.0126416 -0.00458482 -0.000236783 0.00156059
141.0 -0.00361076 -0.00683087 -0.00322011 0.00522082 -0.000195323 -0.00502549 -0.0222629 -0.0254427 -0.0129872 -0.00516694 -0.000879509 0.000894837
142.0 -0.00427632 -0.00776643 -0.00349011 0.00602137 -0.000393105 -0.00562827 -0.0212124 -0.0252243 -0.0133429 -0.00577172 -0.00154826 0.000201949
143.0 -0.00495011 -0.00871727 -0.00376715 0.00683369 -0.00059148 -0.00624221 -0.0201589 -0.024995 -0.0137072 -0.0063973 -0.00224089 -0.000515841
144.0 -0.00563108 -0.00968 -0.00404893 0.00765554 -0.000791074 -0.00686447 -0.0191032 -0.0247563 -0.0140788 -0.00704051 -0.00295406 -0.00125504
145.0 -0.00631774 -0.0106535 -0.00433575 0.00848562 -0.000990996 -0.00749462 -0.0180472 -0.0245084 -0.014457 -0.00770011 -0.00368614 -0.00201396
146.0 -0.0070083 -0.0116361 -0.00462776 0.00932218 -0.00119027 -0.0081319 -0.0169937 -0.0242531 -0.0148414 -0.00837472 -0.00443551 -0.00279091
147.0 -0.00770164 -0.0126264 -0.00492473 0.010164 -0.00138846 -0.00877555 -0.0159436 -0.0239927 -0.0152316 -0.00906287 -0.00520028 -0.00358383
148.0 -0.00839741 -0.0136223 -0.00522487 0.0110098 -0.00158627 -0.00942358 -0.0148964 -0.0237245 -0.0156258 -0.00976206 -0.00597797 -0.00439025
149.0 -0.00909375 -0.014623 -0.00552921 0.0118584 -0.00178227 -0.0100761 -0.0138544 -0.0234523 -0.0160239 -0.0104713 -0.00676722 -0.00520871
150.0 -0.00979057 -0.0156276 -0.00583703 0.0127091 -0.00197677 -0.0107323 -0.0128171 -0.0231758 -0.0164254 -0.0111897 -0.0075671 -0.00603828
151.0 -0.0104864 -0.0166345 -0.00614812 0.0135604 -0.00216913 -0.0113913 -0.0117872 -0.0228963 -0.01683 -0.0119158 -0.00837576 -0.00687697
152.0 -0.0111808 -0.0176427 -0.00646197 0.0144117 -0.00235939 -0.0120524 -0.0107648 -0.0226145 -0.0172369 -0.0126483 -0.0091917 -0.00772321
153.0 -0.0118727 -0.018651 -0.0067783 0.0152618 -0.00254719 -0.0127146 -0.00975021 -0.0223298 -0.0176449 -0.0133855 -0.0100132 -0.00857536
154.0 -0.0125617 -0.0196586 -0.00709687 0.0161102 -0.00273243 -0.0133777 -0.00874395 -0.0220434 -0.0180539 -0.0141267 -0.0108395 -0.0094324
155.0 -0.013247 -0.020665 -0.00741802 0.016956 -0.00291448 -0.0140415 -0.00774691 -0.0217558 -0.0184639 -0.0148714 -0.0116696 -0.0102935
156.0 -0.0139275 -0.0216704 -0.00774292 0.017799 -0.00309228 -0.0147067 -0.00676013 -0.0214686 -0.0188753 -0.0156195 -0.0125033 -0.0111583
157.0 -0.0146033 -0.0226723 -0.00806901 0.0186378 -0.00326715 -0.0153707 -0.00578253 -0.0211813 -0.0192862 -0.0163684 -0.0133379 -0.0120241
158.0 -0.0152733 -0.0236703 -0.00839696 0.0194718 -0.00343819 -0.0160336 -0.00481457 -0.0208936 -0.019696 -0.0171172 -0.0141728 -0.0128902
159.0 -0.0159377 -0.024664 -0.00872628 0.0203008 -0.0036057 -0.0166951 -0.00385621 -0.0206055 -0.0201042 -0.0178652 -0.0150069 -0.0137557
160.0 -0.0165957 -0.0256529 -0.00905717 0.0211243 -0.00376926 -0.017355 -0.00290781 -0.0203186 -0.0205108 -0.0186118 -0.0158394 -0.0146196
161.0 -0.017247 -0.026637 -0.00939 0.021942 -0.00392852 -0.0180135 -0.00196932 -0.0200326 -0.0209158 -0.0193568 -0.0166701 -0.0154817
162.0 -0.0178915 -0.0276157 -0.00972421 0.0227536 -0.00408363 -0.01867 -0.00104164 -0.019749 -0.0213194 -0.0200996 -0.0174982 -0.0163411
163.0 -0.0185282 -0.028588 -0.0100598 0.0235581 -0.0042342 -0.0193239 -0.00012338 -0.0194667 -0.0217205 -0.0208391 -0.0183227 -0.0171969
164.0 -0.019157 -0.0295547 -0.0103977 0.0243558 -0.00437962 -0.0199762 0.000784985 -0.0191859 -0.0221189 -0.0215752 -0.0191433 -0.0180488
165.0 -0.0197786 -0.0305149 -0.0107362 0.0251467 -0.00452121 -0.0206255 0.00168472 -0.0189071 -0.0225145 -0.0223072 -0.0199593 -0.0188959
166.0 -0.0203923 -0.0314672 -0.0110749 0.0259298 -0.00465871 -0.0212711 0.00257565 -0.0186295 -0.0229064 -0.023034 -0.0207696 -0.0197373
167.0 -0.020998 -0.0324121 -0.0114141 0.0267051 -0.00479199 -0.0219131 0.00345904 -0.018353 -0.0232943 -0.0237551 -0.0215739 -0.0205726
168.0 -0.0215954 -0.0333495 -0.011754 0.0274724 -0.00492069 -0.0225518 0.00433405 -0.0180784 -0.0236781 -0.0244704 -0.0223717 -0.0214015
169.0 -0.0221846 -0.0342788 -0.0120942 0.0282317 -0.00504522 -0.0231865 0.005202 -0.0178051 -0.0240575 -0.0251795 -0.0231628 -0.0222236
170.0 -0.0227661 -0.0352006 -0.0124345 0.0289834 -0.00516582 -0.0238175 0.00606394 -0.0175325 -0.0244325 -0.0258821 -0.023947 -0.0230387
171.0 -0.0233392 -0.0361143 -0.0127751 0.0297267 -0.00528206 -0.0244447 0.00691946 -0.017261 -0.0248026 -0.0265778 -0.0247235 -0.0238461
172.0 -0.0239041 -0.0370205 -0.0131164 0.0304623 -0.00539386 -0.0250684 0.00776889 -0.0169912 -0.0251685 -0.0272672 -0.0254932 -0.0246465
173.0 -0.0244606 -0.0379175 -0.0134569 0.031189 -0.00550182 -0.0256872 0.00861357 -0.0167222 -0.0255292 -0.0279488 -0.0262544 -0.0254384
174.0 -0.0250091 -0.0388062 -0.0137971 0.0319076 -0.00560597 -0.0263017 0.00945396 -0.0164536 -0.0258845 -0.0286229 -0.0270076 -0.0262223
175.0 -0.0255491 -0.0396865 -0.0141373 0.0326178 -0.00570589 -0.0269119 0.0102915 -0.0161845 -0.0262337 -0.0292888 -0.0277523 -0.0269977
176.0 -0.0260812 -0.0405576 -0.0144765 0.0333194 -0.00580235 -0.027517 0.0111259 -0.0159155 -0.0265771 -0.0299465 -0.0284882 -0.0277642
177.0 -0.0266055 -0.0414205 -0.0148149 0.034013 -0.00589531 -0.0281177 0.011959 -0.0156454 -0.0269141 -0.030596 -0.0292157 -0.0285224
178.0 -0.027123 -0.0422747 -0.0151517 0.0346989 -0.00598563 -0.0287132 0.0127923 -0.0153732 -0.0272443 -0.031237 -0.0299345 -0.0292721
179.0 -0.0276325 -0.0431211 -0.0154886 0.0353768 -0.00607192 -0.0293049 0.0136246 -0.0151001 -0.0275683 -0.0318696 -0.0306447 -0.0300134
180.0 -0.0281347 -0.0439589 -0.0158242 0.0360468 -0.00615528 -0.0298915 0.014457 -0.0148266 -0.027887 -0.0324947 -0.0313468 -0.0307463
181.0 -0.0286297 -0.0447881 -0.0161584 0.0367089 -0.00623563 -0.0304733 0.0152906 -0.0145511 -0.0281991 -0.0331112 -0.0320401 -0.0314706
182.0 -0.029118 -0.0456091 -0.0164911 0.0373635 -0.00631343 -0.0310501 0.0161266 -0.0142729 -0.0285039 -0.033719 -0.0327247 -0.0321865
183.0 -0.0295992 -0.0464215 -0.0168223 0.0380104 -0.00638843 -0.0316219 0.0169652 -0.0139919 -0.0288017 -0.0343181 -0.0334006 -0.0328937
184.0 -0.0300741 -0.047226 -0.017152 0.0386501 -0.00646106 -0.032189 0.017807 -0.0137088 -0.0290936 -0.0349092 -0.0340684 -0.0335929
185.0 -0.0305422 -0.0480221 -0.0174799 0.0392822 -0.00653118 -0.032751 0.0186521 -0.013423 -0.0293788 -0.035492 -0.0347275 -0.0342834
186.0 -0.0310044 -0.0488107 -0.0178062 0.0399075 -0.00659909 -0.0333085 0.0195021 -0.0131337 -0.0296572 -0.0360667 -0.0353787 -0.0349662
187.0 -0.0314612 -0.0495917 -0.0181305 0.0405265 -0.00666537 -0.0338611 0.0203579 -0.0128403 -0.0299288 -0.0366333 -0.036022 -0.0356414
188.0 -0.0319122 -0.050365 -0.0184528 0.0411386 -0.00672973 -0.0344089 0.0212194 -0.0125433 -0.0301935 -0.0371917 -0.0366574 -0.0363088
189.0 -0.032358 -0.0511309 -0.018773 0.0417444 -0.0067925 -0.0349519 0.0220872 -0.0122419 -0.0304515 -0.0377426 -0.0372853 -0.036969
190.0 -0.0327984 -0.0518896 -0.0190912 0.042344 -0.00685361 -0.0354904 0.0229619 -0.0119359 -0.0307025 -0.0382854 -0.0379055 -0.0376217
191.0 -0.033234 -0.0526414 -0.0194074 0.0429377 -0.00691329 -0.0360244 0.0238435 -0.0116261 -0.0309474 -0.038821 -0.0385185 -0.0382675
192.0 -0.0336652 -0.0533866 -0.0197215 0.0435259 -0.00697186 -0.0365541 0.0247332 -0.0113112 -0.0311858 -0.0393494 -0.0391247 -0.0389067
193.0 -0.0340923 -0.0541253 -0.020033 0.0441088 -0.00702968 -0.0370791 0.0256307 -0.0109913 -0.0314176 -0.0398705 -0.0397243 -0.0395395
194.0 -0.0345151 -0.0548581 -0.0203429 0.0446866 -0.00708612 -0.0376005 0.0265362 -0.0106668 -0.0316434 -0.0403852 -0.0403176 -0.0401664
195.0 -0.0349345 -0.0555851 -0.0206506 0.0452598 -0.00714198 -0.0381179 0.0274507 -0.0103366 -0.0318629 -0.0408935 -0.0409051 -0.0407877
196.0 -0.0353503 -0.0563065 -0.0209561 0.0458284 -0.00719711 -0.0386313 0.0283731 -0.0100019 -0.0320769 -0.0413955 -0.0414867 -0.0414035
197.0 -0.0357629 -0.0570224 -0.0212595 0.0463927 -0.00725174 -0.0391409 0.0293045 -0.00966146 -0.0322847 -0.0418914 -0.0420628 -0.042014
198.0 -0.0361727 -0.0577336 -0.0215608 0.0469531 -0.00730594 -0.0396472 0.0302438 -0.00931701 -0.032488 -0.0423822 -0.0426341 -0.0426199
199.0 -0.0365799 -0.0584399 -0.02186 0.0475099 -0.00735999 -0.0401499 0.0311915 -0.00896755 -0.0326863 -0.0428677 -0.0432006 -0.0432212
200.0 -0.0369849 -0.0591418 -0.0221569 0.0480633 -0.00741399 -0.0406493 0.0321476 -0.00861312 -0.0328796 -0.0433483 -0.0437625 -0.0438182
201.0 -0.0373877 -0.0598397 -0.022452 0.0486137 -0.00746782 -0.0411459 0.0331117 -0.00825371 -0.033068 -0.0438241 -0.0443204 -0.0444115
202.0 -0.0377888 -0.0605339 -0.0227452 0.0491613 -0.00752179 -0.0416396 0.0340837 -0.00788975 -0.0332522 -0.0442959 -0.0448745 -0.0450013
203.0 -0.0381882 -0.0612249 -0.0230367 0.0497065 -0.00757574 -0.0421308 0.0350632 -0.00752112 -0.0334324 -0.0447637 -0.0454254 -0.0455881
204.0 -0.0385865 -0.0619127 -0.0233263 0.0502496 -0.00763011 -0.0426195 0.0360494 -0.00714833 -0.0336091 -0.0452281 -0.0459732 -0.046172
205.0 -0.0389837 -0.0625976 -0.0236139 0.0507907 -0.00768491 -0.0431058 0.0370423 -0.00677148 -0.0337822 -0.0456891 -0.0465181 -0.0467531
206.0 -0.0393802 -0.06328 -0.0238998 0.0513301 -0.00774019 -0.0435899 0.0380412 -0.00639066 -0.0339523 -0.0461472 -0.0470605 -0.047332
207.0 -0.0397761 -0.0639599 -0.0241838 0.051868 -0.00779611 -0.0440719 0.0390457 -0.00600605 -0.0341193 -0.0466025 -0.0476005 -0.0479086
208.0 -0.0401717 -0.0646377 -0.024466 0.0524047 -0.00785288 -0.0445518 0.0400553 -0.0056179 -0.034284 -0.0470554 -0.0481386 -0.0484836
209.0 -0.0405672 -0.0653138 -0.0247466 0.0529405 -0.00791027 -0.0450302 0.0410688 -0.00522679 -0.0344464 -0.0475066 -0.0486751 -0.049057
210.0 -0.0409627 -0.0659881 -0.0250254 0.0534754 -0.00796869 -0.0455067 0.0420862 -0.00483223 -0.0346066 -0.0479557 -0.0492101 -0.0496291
211.0 -0.0413586 -0.0666607 -0.0253021 0.0540097 -0.00802822 -0.0459814 0.0431065 -0.00443508 -0.0347651 -0.0484032 -0.0497437 -0.0501999
212.0 -0.0417548 -0.067332 -0.0255772 0.0545434 -0.0080888 -0.0464546 0.0441289 -0.00403528 -0.034922 -0.0488493 -0.0502763 -0.0507697
213.0 -0.0421517 -0.0680019 -0.0258503 0.0550768 -0.00815069 -0.0469261 0.0451528 -0.00363325 -0.0350775 -0.0492942 -0.0508078 -0.0513386
214.0 -0.0425491 -0.0686706 -0.0261215 0.0556099 -0.00821382 -0.047396 0.0461773 -0.00322914 -0.0352319 -0.049738 -0.0513386 -0.0519067
215.0 -0.0429474 -0.0693379 -0.0263906 0.0561427 -0.00827842 -0.0478643 0.0472016 -0.00282327 -0.0353854 -0.0501809 -0.0518687 -0.0524742
216.0 -0.0433465 -0.0700039 -0.0266575 0.0566752 -0.00834451 -0.0483307 0.0482253 -0.00241568 -0.0355379 -0.0506229 -0.0523979 -0.0530408
217.0 -0.0437464 -0.0706687 -0.0269223 0.0572075 -0.00841205 -0.0487955 0.0492468 -0.00200701 -0.03569 -0.0510643 -0.0529267 -0.0536069
218.0 -0.0441473 -0.0713319 -0.0271846 0.0577396 -0.00848135 -0.0492583 0.0502658 -0.00159719 -0.0358414 -0.0515051 -0.0534551 -0.0541726
219.0 -0.044549 -0.0719936 -0.0274447 0.0582713 -0.00855216 -0.0497191 0.0512813 -0.00118663 -0.0359924 -0.0519452 -0.0539826 -0.0547374
220.0 -0.0449515 -0.0726535 -0.027702 0.0588025 -0.00862473 -0.0501778 0.0522924 -0.000775425 -0.0361431 -0.0523847 -0.0545096 -0.0553016
221.0 -0.0453548 -0.0733113 -0.0279565 0.0593331 -0.00869917 -0.0506339 0.0532984 -0.000363723 -0.0362933 -0.0528233 -0.0550359 -0.0558649
222.0 -0.0457588 -0.0739671 -0.0282083 0.0598629 -0.00877523 -0.0510877 0.0542982 4.79092e-05 -0.0364435 -0.0532614 -0.0555615 -0.0564274
223.0 -0.0461632 -0.0746202 -0.028457 0.0603917 -0.00885312 -0.0515386 0.0552912 0.000459319 -0.0365934 -0.0536985 -0.0560861 -0.0569887
224.0 -0.0465681 -0.0752704 -0.0287024 0.0609193 -0.00893286 -0.0519864 0.0562765 0.00087072 -0.0367428 -0.0541348 -0.0566096 -0.0575488
225.0 -0.0469731 -0.0759174 -0.0289444 0.0614453 -0.00901437 -0.0524309 0.0572533 0.00128137 -0.036892 -0.0545699 -0.0571318 -0.0581074
226.0 -0.0473781 -0.0765608 -0.0291828 0.0619694 -0.00909766 -0.0528718 0.0582207 0.00169144 -0.0370408 -0.0550038 -0.0576525 -0.0586644
227.0 -0.0477828 -0.0772001 -0.0294173 0.0624914 -0.00918274 -0.0533087 0.0591778 0.00210042 -0.0371893 -0.0554362 -0.0581717 -0.0592194
228.0 -0.0481869 -0.0778348 -0.0296479 0.0630109 -0.0092695 -0.0537414 0.0601237 0.00250829 -0.0373371 -0.0558668 -0.0586888 -0.0597722
229.0 -0.0485902 -0.0784645 -0.0298743 0.0635273 -0.00935793 -0.0541694 0.0610581 0.00291471 -0.0374845 -0.0562956 -0.0592035 -0.0603225
230.0 -0.0489923 -0.0790885 -0.0300962 0.0640404 -0.00944801 -0.0545924 0.0619797 0.00331968 -0.037631 -0.0567221 -0.0597157 -0.0608699
231.0 -0.0493928 -0.0797065 -0.0303137 0.0645497 -0.00953958 -0.0550101 0.0628879 0.00372273 -0.0377766 -0.0571462 -0.0602251 -0.0614141
232.0 -0.0497915 -0.0803178 -0.0305263 0.0650546 -0.00963263 -0.055422 0.063782 0.00412358 -0.0379213 -0.0575675 -0.0607313 -0.0619548
233.0 -0.050188 -0.0809219 -0.0307339 0.0655549 -0.00972702 -0.0558279 0.0646611 0.00452229 -0.0380649 -0.0579859 -0.061234 -0.0624916
234.0 -0.0505817 -0.0815181 -0.0309363 0.0660499 -0.0098227 -0.0562272 0.0655247 0.00491842 -0.0382071 -0.0584007 -0.0617326 -0.063024
235.0 -0.0509725 -0.0821059 -0.0311334 0.0665392 -0.00991957 -0.0566197 0.0663718 0.00531185 -0.0383481 -0.0588118 -0.0622269 -0.0635518
236.0 -0.0513598 -0.0826847 -0.0313249 0.0670223 -0.0100174 -0.0570048 0.067202 0.00570207 -0.0384873 -0.0592189 -0.0627166 -0.0640744
237.0 -0.0517433 -0.083254 -0.0315107 0.0674986 -0.0101163 -0.0573823 0.0680146 0.00608918 -0.0386247 -0.0596215 -0.063201 -0.0645914
238.0 -0.0521224 -0.083813 -0.0316906 0.0679677 -0.0102159 -0.0577518 0.0688087 0.00647272 -0.0387601 -0.0600193 -0.06368 -0.0651024
239.0 -0.0524968 -0.0843611 -0.0318643 0.068429 -0.0103163 -0.0581127 0.069584 0.00685242 -0.0388936 -0.0604121 -0.0641529 -0.0656071
240.0 -0.052866 -0.0848979 -0.0320319 0.068882 -0.0104171 -0.0584649 0.0703395 0.00722791 -0.0390246 -0.0607994 -0.0646196 -0.0661049
241.0 -0.0532298 -0.0854227 -0.032193 0.0693262 -0.0105184 -0.0588079 0.0710752 0.00759907 -0.0391534 -0.0611808 -0.0650793 -0.0665953
242.0 -0.0535874 -0.085935 -0.0323476 0.0697612 -0.0106199 -0.0591413 0.0717901 0.00796573 -0.0392795 -0.0615557 -0.0655319 -0.0670779
243.0 -0.0539387 -0.0864343 -0.0324955 0.0701865 -0.0107216 -0.0594649 0.0724838 0.00832713 -0.0394028 -0.0619243 -0.0659769 -0.0675525
244.0 -0.0542832 -0.0869199 -0.0326368 0.0706016 -0.0108232 -0.0597784 0.073156 0.00868358 -0.0395231 -0.0622859 -0.0664136 -0.0680182
245.0 -0.0546204 -0.0873915 -0.0327711 0.0710059 -0.0109247 -0.0600813 0.0738059 0.00903422 -0.0396406 -0.0626401 -0.066842 -0.0684751
246.0 -0.05495 -0.0878484 -0.0328984 0.0713992 -0.0110258 -0.0603734 0.0744334 0.00937921 -0.0397546 -0.0629868 -0.0672615 -0.0689223
247.0 -0.0552716 -0.0882904 -0.0330188 0.071781 -0.0111264 -0.0606546 0.075038 0.00971797 -0.0398654 -0.0633254 -0.0676717 -0.0693596
248.0 -0.0555848 -0.0887168 -0.033132 0.0721508 -0.0112264 -0.0609244 0.0756195 0.0100502 -0.0399728 -0.0636556 -0.0680722 -0.0697865
249.0 -0.0558892 -0.0891274 -0.0332382 0.0725083 -0.0113255 -0.0611828 0.0761773 0.0103759 -0.0400765 -0.0639772 -0.0684626 -0.0702027
250.0 -0.0561846 -0.0895218 -0.0333372 0.0728532 -0.0114237 -0.0614295 0.0767111 0.0106947 -0.0401762 -0.0642899 -0.0688425 -0.0706077
251.0 -0.0564706 -0.0898996 -0.033429 0.0731851 -0.0115208 -0.0616643 0.0772213 0.0110061 -0.0402722 -0.0645931 -0.0692116 -0.0710013
252.0 -0.0567468 -0.0902606 -0.0335138 0.0735037 -0.0116165 -0.0618872 0.0777068 0.0113102 -0.0403643 -0.0648869 -0.0695695 -0.0713829
253.0 -0.0570131 -0.0906043 -0.0335912 0.0738087 -0.0117109 -0.0620978 0.0781679 0.0116063 -0.0404522 -0.0651709 -0.0699159 -0.0717521
254.0 -0.057269 -0.0909307 -0.0336616 0.0740998 -0.0118037 -0.0622961 0.0786048 0.0118945 -0.0405359 -0.0654446 -0.0702505 -0.0721089
255.0 -0.0575144 -0.0912394 -0.033725 0.0743769 -0.0118947 -0.0624822 0.0790168 0.0121747 -0.0406151 -0.065708 -0.0705729 -0.0724528
256.0 -0.0577491 -0.0915304 -0.0337813 0.0746398 -0.0119839 -0.0626558 0.0794041 0.0124464 -0.0406901 -0.0659609 -0.0708829 -0.0727834
257.0 -0.0579728 -0.0918035 -0.0338307 0.0748882 -0.0120711 -0.0628171 0.0797669 0.0127094 -0.0407606 -0.0662028 -0.0711802 -0.0731006
258.0 -0.0581853 -0.0920585 -0.0338731 0.0751219 -0.0121561 -0.0629658 0.0801052 0.0129639 -0.0408264 -0.0664337 -0.0714644 -0.0734039
259.0 -0.0583865 -0.0922953 -0.0339088 0.0753409 -0.0122388 -0.0631021 0.0804189 0.0132093 -0.0408873 -0.0666532 -0.0717355 -0.0736933
260.0 -0.0585763 -0.0925141 -0.0339378 0.0755452 -0.0123193 -0.0632259 0.0807082 0.0134458 -0.040944 -0.0668615 -0.0719933 -0.0739685
261.0 -0.0587544 -0.0927145 -0.0339602 0.0757345 -0.0123971 -0.0633374 0.0809733 0.013673 -0.0409956 -0.067058 -0.0722375 -0.0742294
262.0 -0.0589208 -0.0928968 -0.033976 0.0759088 -0.0124724 -0.0634364 0.0812143 0.013891 -0.0410423 -0.0672429 -0.0724679 -0.0744755
263.0 -0.0590755 -0.0930609 -0.0339854 0.0760682 -0.012545 -0.0635232 0.0814317 0.0141 -0.041084 -0.0674158 -0.0726843 -0.0747069
264.0 -0.0592183 -0.0932068 -0.0339885 0.0762125 -0.0126149 -0.0635977 0.0816254 0.0142994 -0.0411209 -0.0675767 -0.0728868 -0.0749236
265.0 -0.0593492 -0.0933347 -0.0339855 0.076342 -0.0126819 -0.0636601 0.0817959 0.0144894 -0.0411528 -0.0677257 -0.073075 -0.0751252
266.0 -0.0594682 -0.0934446 -0.0339763 0.0764564 -0.0127459 -0.0637105 0.0819434 0.01467 -0.0411798 -0.0678625 -0.0732491 -0.0753117
267.0 -0.0595754 -0.0935366 -0.0339612 0.076556 -0.0128071 -0.0637489 0.0820685 0.0148415 -0.0412015 -0.0679872 -0.0734087 -0.075483
268.0 -0.0596707 -0.0936109 -0.0339402 0.0766408 -0.0128652 -0.0637756 0.0821715 0.0150032 -0.0412181 -0.0680995 -0.0735539 -0.0756391
269.0 -0.0597541 -0.0936675 -0.0339135 0.0767108 -0.0129203 -0.0637905 0.0822528 0.015156 -0.0412296 -0.0681995 -0.0736848 -0.0757801
270.0 -0.0598258 -0.0937068 -0.033881 0.0767663 -0.0129724 -0.0637939 0.0823127 0.0152991 -0.0412356 -0.0682872 -0.0738011 -0.0759058
271.0 -0.0598858 -0.0937288 -0.033843 0.0768073 -0.0130214 -0.0637859 0.0823519 0.0154334 -0.041237 -0.0683625 -0.0739034 -0.0760164
272.0 -0.0599341 -0.0937338 -0.0337996 0.0768339 -0.0130672 -0.0637667 0.082371 0.0155587 -0.0412327 -0.0684256 -0.0739909 -0.0761116
273.0 -0.0599711 -0.0937218 -0.0337508 0.0768465 -0.0131102 -0.0637363 0.0823699 0.015675 -0.0412232 -0.0684765 -0.0740642 -0.0761919
274.0 -0.0599966 -0.0936932 -0.0336966 0.0768449 -0.01315 -0.0636949 0.0823499 0.0157827 -0.0412088 -0.0685149 -0.0741232 -0.0762569
275.0 -0.0600108 -0.0936482 -0.0336373 0.0768295 -0.0131867 -0.0636427 0.082311 0.0158815 -0.0411889 -0.0685412 -0.074168 -0.076307
276.0 -0.060014 -0.0935868 -0.0335729 0.0768004 -0.0132206 -0.0635799 0.0822541 0.0159723 -0.0411638 -0.0685554 -0.0741986 -0.0763422
277.0 -0.0600061 -0.0935094 -0.0335033 0.0767578 -0.0132514 -0.0635064 0.0821794 0.016055 -0.0411332 -0.0685573 -0.0742151 -0.0763626
278.0 -0.0599875 -0.0934163 -0.0334288 0.0767019 -0.0132794 -0.0634226 0.082088 0.0161291 -0.0410976 -0.0685475 -0.0742176 -0.0763683
279.0 -0.0599582 -0.0933075 -0.0333493 0.0766329 -0.0133045 -0.0633284 0.0819799 0.0161959 -0.0410565 -0.0685255 -0.0742064 -0.0763595
280.0 -0.0599184 -0.0931833 -0.0332649 0.0765509 -0.0133268 -0.0632241 0.081856 0.0162552 -0.0410102 -0.0684918 -0.0741816 -0.0763363
281.0 -0.0598684 -0.093044 -0.0331756 0.0764562 -0.0133464 -0.0631098 0.0817168 0.0163071 -0.0409585 -0.0684464 -0.0741431 -0.076299
282.0 -0.0598081 -0.0928897 -0.0330816 0.0763489 -0.0133633 -0.0629857 0.0815629 0.0163522 -0.0409014 -0.0683893 -0.0740912 -0.0762475
283.0 -0.0597379 -0.0927208 -0.0329828 0.0762293 -0.0133776 -0.0628518 0.0813949 0.0163908 -0.040839 -0.0683206 -0.0740259 -0.0761821
284.0 -0.0596579 -0.0925373 -0.0328793 0.0760976 -0.0133893 -0.0627083 0.0812133 0.0164228 -0.0407711 -0.0682404 -0.0739477 -0.0761031
285.0 -0.0595683 -0.0923394 -0.0327711 0.0759539 -0.0133986 -0.0625553 0.0810186 0.0164488 -0.040698 -0.0681491 -0.0738565 -0.0760104
286.0 -0.0594693 -0.0921275 -0.0326582 0.0757984 -0.0134055 -0.0623929 0.0808117 0.016469 -0.0406193 -0.0680463 -0.0737525 -0.0759045
287.0 -0.059361 -0.0919017 -0.0325407 0.0756313 -0.0134101 -0.0622212 0.0805926 0.0164837 -0.0405353 -0.0679325 -0.073636 -0.0757852
288.0 -0.0592435 -0.0916621 -0.0324186 0.0754528 -0.0134124 -0.0620403 0.0803621 0.0164931 -0.0404457 -0.0678078 -0.0735069 -0.0756532
289.0 -0.0591171 -0.091409 -0.0322918 0.0752631 -0.0134126 -0.0618504 0.0801208 0.0164978 -0.0403507 -0.0676721 -0.0733656 -0.0755083
290.0 -0.0589819 -0.0911425 -0.0321606 0.0750622 -0.0134107 -0.0616515 0.0798689 0.016498 -0.04025 -0.0675258 -0.0732124 -0.0753508
291.0 -0.0588381 -0.0908627 -0.0320247 0.0748504 -0.0134067 -0.0614437 0.079607 0.0164939 -0.040144 -0.0673687 -0.073047 -0.075181
292.0 -0.0586857 -0.0905699 -0.0318842 0.0746278 -0.0134008 -0.0612271 0.0793357 0.0164862 -0.0400325 -0.0672013 -0.07287 -0.0749989
293.0 -0.058525 -0.0902642 -0.0317392 0.0743946 -0.0133929 -0.0610017 0.0790548 0.0164744 -0.0399153 -0.0670234 -0.0726815 -0.0748048
294.0 -0.0583561 -0.0899457 -0.0315896 0.0741509 -0.0133832 -0.0607676 0.0787654 0.0164598 -0.0397923 -0.0668352 -0.0724813 -0.0745988
295.0 -0.0581791 -0.0896145 -0.0314355 0.0738968 -0.0133718 -0.060525 0.0784673 0.0164422 -0.0396638 -0.0666368 -0.0722702 -0.0743813
296.0 -0.0579941 -0.0892708 -0.0312767 0.0736324 -0.0133587 -0.0602738 0.078161 0.0164216 -0.0395297 -0.0664284 -0.0720479 -0.0741523
297.0 -0.0578011 -0.0889146 -0.0311135 0.0733579 -0.0133438 -0.0600141 0.0778471 0.0163986 -0.0393899 -0.06621 -0.0718148 -0.0739121
298.0 -0.0576005 -0.0885462 -0.0309458 0.0730734 -0.0133274 -0.059746 0.0775255 0.0163737 -0.0392442 -0.0659817 -0.0715706 -0.0736606
299.0 -0.0573922 -0.0881656 -0.0307735 0.0727789 -0.0133093 -0.0594695 0.0771963 0.0163468 -0.0390932 -0.0657438 -0.0713161 -0.0733983
300.0 -0.0571763 -0.0877729 -0.0305966 0.0724746 -0.0132898 -0.0591848 0.0768602 0.016318 -0.0389363 -0.0654962 -0.0710512 -0.0731254
301.0 -0.0569529 -0.0873682 -0.0304153 0.0721605 -0.0132688 -0.0588917 0.0765168 0.0162882 -0.0387736 -0.0652392 -0.0707759 -0.0728417
302.0 -0.0567221 -0.0869514 -0.0302294 0.0718368 -0.0132463 -0.0585904 0.0761668 0.016257 -0.0386052 -0.0649728 -0.0704905 -0.0725477
303.0 -0.0564839 -0.086523 -0.0300391 0.0715034 -0.0132224 -0.058281 0.07581 0.0162246 -0.0384311 -0.0646971 -0.0701953 -0.0722436
304.0 -0.0562385 -0.0860827 -0.0298442 0.0711606 -0.0131971 -0.0579635 0.0754466 0.0161919 -0.0382511 -0.0644123 -0.0698901 -0.0719292
305.0 -0.0559859 -0.0856308 -0.0296449 0.0708083 -0.0131705 -0.0576379 0.0750766 0.0161583 -0.0380656 -0.0641184 -0.0695753 -0.071605
306.0 -0.0557261 -0.0851673 -0.0294412 0.0704467 -0.0131424 -0.0573043 0.0747003 0.0161245 -0.0378742 -0.0638153 -0.0692509 -0.071271
307.0 -0.0554592 -0.0846924 -0.0292331 0.0700758 -0.0131131 -0.0569627 0.0743172 0.0160903 -0.0376769 -0.0635036 -0.0689172 -0.0709274
308.0 -0.0551853 -0.0842059 -0.0290207 0.0696956 -0.0130823 -0.0566133 0.0739276 0.0160558 -0.0374743 -0.0631832 -0.0685743 -0.0705744
309.0 -0.0549043 -0.0837083 -0.0288039 0.0693063 -0.0130502 -0.0562561 0.0735319 0.0160216 -0.0372657 -0.0628539 -0.0682221 -0.0702119
310.0 -0.0546164 -0.0831993 -0.0285829 0.0689079 -0.0130167 -0.0558911 0.0731295 0.0159872 -0.0370516 -0.0625164 -0.0678612 -0.0698405
311.0 -0.0543216 -0.0826793 -0.0283577 0.0685004 -0.0129819 -0.0555185 0.0727205 0.0159531 -0.0368318 -0.0621704 -0.0674911 -0.06946
312.0 -0.0540198 -0.0821482 -0.0281284 0.068084 -0.0129457 -0.0551383 0.072305 0.0159189 -0.0366067 -0.061816 -0.0671126 -0.0690707
313.0 -0.0537112 -0.0816062 -0.027895 0.0676587 -0.0129081 -0.0547506 0.0718822 0.0158852 -0.0363758 -0.0614536 -0.0667256 -0.0686726
314.0 -0.0533957 -0.0810534 -0.0276577 0.0672246 -0.012869 -0.0543555 0.0714529 0.0158516 -0.0361395 -0.0610831 -0.0663301 -0.0682661
315.0 -0.0530735 -0.0804899 -0.0274165 0.0667817 -0.0128285 -0.0539532 0.0710166 0.0158183 -0.0358979 -0.0607047 -0.0659263 -0.067851
316.0 -0.0527445 -0.0799159 -0.0271715 0.0663302 -0.0127865 -0.0535437 0.0705731 0.0157853 -0.0356508 -0.0603183 -0.0655143 -0.0674277
317.0 -0.0524086 -0.0793315 -0.0269229 0.0658701 -0.0127429 -0.0531272 0.0701223 0.0157524 -0.0353986 -0.0599246 -0.0650946 -0.0669964
318.0 -0.0520661 -0.0787368 -0.0266707 0.0654015 -0.0126977 -0.0527037 0.0696642 0.0157198 -0.0351415 -0.0595231 -0.0646667 -0.066557
319.0 -0.0517169 -0.0781319 -0.026415 0.0649244 -0.012651 -0.0522734 0.0691983 0.0156872 -0.0348789 -0.0591144 -0.0642313 -0.0661098
320.0 -0.051361 -0.0775171 -0.0261561 0.064439 -0.0126024 -0.0518366 0.0687251 0.0156548 -0.0346114 -0.0586983 -0.0637882 -0.0656548
321.0 -0.0509985 -0.0768925 -0.025894 0.0639455 -0.0125523 -0.0513932 0.0682438 0.0156222 -0.0343392 -0.0582752 -0.0633379 -0.0651924
322.0 -0.0506294 -0.0762582 -0.0256288 0.0634438 -0.0125003 -0.0509435 0.0677547 0.0155896 -0.0340622 -0.057845 -0.0628801 -0.0647225
323.0 -0.0502538 -0.0756146 -0.0253608 0.0629342 -0.0124465 -0.0504877 0.0672574 0.0155565 -0.0337805 -0.0574079 -0.0624153 -0.0642453
324.0 -0.0498717 -0.0749617 -0.0250901 0.0624167 -0.0123908 -0.0500259 0.0667516 0.0155231 -0.0334943 -0.0569642 -0.0619434 -0.0637611
325.0 -0.0494831 -0.0742998 -0.0248166 0.0618915 -0.0123332 -0.0495582 0.0662378 0.0154891 -0.0332037 -0.056514 -0.0614645 -0.0632698
326.0 -0.0490882 -0.0736291 -0.0245409 0.0613586 -0.0122736 -0.049085 0.0657154 0.0154544 -0.0329089 -0.0560574 -0.0609791 -0.0627717
327.0 -0.0486868 -0.0729498 -0.024263 0.0608183 -0.0122119 -0.0486064 0.0651845 0.0154189 -0.0326098 -0.0555945 -0.0604869 -0.0622668
328.0 -0.0482793 -0.0722622 -0.0239829 0.0602708 -0.0121482 -0.0481226 0.0646447 0.0153823 -0.0323069 -0.0551255 -0.0599884 -0.0617555
329.0 -0.0478655 -0.0715665 -0.023701 0.059716 -0.0120823 -0.0476337 0.0640963 0.0153444 -0.0320001 -0.0546505 -0.0594835 -0.0612375
330.0 -0.0474456 -0.070863 -0.0234174 0.0591543 -0.0120141 -0.0471402 0.0635389 0.015305 -0.0316897 -0.0541699 -0.0589726 -0.0607135
331.0 -0.0470196 -0.0701518 -0.0231322 0.0585857 -0.0119437 -0.046642 0.0629728 0.0152642 -0.0313758 -0.0536836 -0.0584556 -0.0601832
332.0 -0.0465877 -0.0694334 -0.0228457 0.0580105 -0.011871 -0.0461395 0.0623978 0.0152215 -0.0310584 -0.0531917 -0.0579328 -0.059647
333.0 -0.0461499 -0.0687078 -0.022558 0.0574289 -0.0117959 -0.0456329 0.0618136 0.0151767 -0.0307379 -0.0526945 -0.0574041 -0.0591049
334.0 -0.0457063 -0.0679757 -0.0222694 0.056841 -0.0117185 -0.0451225 0.0612209 0.0151299 -0.0304144 -0.0521924 -0.0568699 -0.058557
335.0 -0.0452571 -0.0672371 -0.02198 0.0562471 -0.0116386 -0.0446085 0.0606191 0.0150806 -0.030088 -0.0516851 -0.0563302 -0.0580037
336.0 -0.0448023 -0.0664923 -0.02169 0.0556473 -0.0115562 -0.0440912 0.0600085 0.0150287 -0.0297588 -0.0511731 -0.0557853 -0.0574449
337.0 -0.0443421 -0.0657417 -0.0213996 0.0550419 -0.0114713 -0.0435707 0.0593893 0.014974 -0.0294273 -0.0506564 -0.0552354 -0.0568808
338.0 -0.0438767 -0.0649856 -0.021109 0.0544312 -0.0113839 -0.0430473 0.0587614 0.0149165 -0.0290932 -0.0501354 -0.0546804 -0.0563117
339.0 -0.0434062 -0.0642244 -0.0208182 0.0538153 -0.011294 -0.0425213 0.058125 0.0148557 -0.0287572 -0.0496099 -0.0541206 -0.0557376
340.0 -0.0429306 -0.0634583 -0.0205278 0.0531945 -0.0112014 -0.041993 0.0574802 0.0147915 -0.0284192 -0.0490806 -0.0535562 -0.0551587
341.0 -0.0424503 -0.0626878 -0.0202375 0.052569 -0.0111064 -0.0414626 0.0568274 0.014724 -0.0280792 -0.0485472 -0.0529873 -0.0545751
342.0 -0.0419653 -0.061913 -0.0199477 0.0519391 -0.0110088 -0.0409304 0.0561667 0.0146529 -0.0277375 -0.0480101 -0.0524141 -0.0539871
343.0 -0.0414758 -0.0611345 -0.0196586 0.0513052 -0.0109086 -0.0403966 0.0554981 0.0145781 -0.0273944 -0.0474693 -0.0518367 -0.0533948
344.0 -0.0409821 -0.0603524 -0.0193703 0.0506673 -0.0108059 -0.0398614 0.0548223 0.0144991 -0.0270502 -0.0469254 -0.0512555 -0.0527984
345.0 -0.0404843 -0.0595673 -0.0190831 0.0500258 -0.0107006 -0.0393252 0.0541392 0.0144163 -0.0267046 -0.0463782 -0.0506704 -0.0521981
346.0 -0.0399826 -0.0587794 -0.0187968 0.049381 -0.0105929 -0.0387881 0.0534491 0.0143292 -0.0263582 -0.045828 -0.0500817 -0.0515939
347.0 -0.0394773 -0.0579892 -0.0185119 0.0487332 -0.0104827 -0.0382505 0.0527525 0.014238 -0.026011 -0.0452751 -0.0494896 -0.0509862
348.0 -0.0389686 -0.0571968 -0.0182282 0.0480827 -0.0103702 -0.0377125 0.0520499 0.0141426 -0.0256632 -0.0447195 -0.0488942 -0.050375
349.0 -0.0384566 -0.0564029 -0.0179463 0.0474298 -0.0102552 -0.0371746 0.0513412 0.0140429 -0.0253147 -0.0441614 -0.0482958 -0.0497607
350.0 -0.0379417 -0.0556077 -0.017666 0.0467747 -0.0101379 -0.0366368 0.0506272 0.0139386 -0.0249661 -0.0436014 -0.0476946 -0.0491434
351.0 -0.037424 -0.0548114 -0.0173874 0.0461177 -0.0100183 -0.0360994 0.0499078 0.0138299 -0.0246174 -0.0430392 -0.0470908 -0.0485233
352.0 -0.0369039 -0.0540146 -0.0171106 0.0454593 -0.00989665 -0.0355626 0.0491844 0.0137171 -0.0242686 -0.0424752 -0.0464844 -0.0479005
353.0 -0.0363817 -0.0532176 -0.0168359 0.0447996 -0.00977287 -0.0350267 0.0484563 0.0135996 -0.02392 -0.0419098 -0.0458759 -0.0472754
354.0 -0.0358574 -0.0524207 -0.0165633 0.0441391 -0.00964706 -0.034492 0.0477245 0.0134775 -0.0235718 -0.0413429 -0.0452654 -0.0466482
355.0 -0.0353315 -0.0516244 -0.0162929 0.0434779 -0.0095193 -0.0339586 0.0469896 0.0133514 -0.0232241 -0.0407748 -0.044653 -0.0460189
356.0 -0.0348042 -0.0508289 -0.0160247 0.0428166 -0.00938975 -0.0334268 0.046252 0.0132209 -0.0228768 -0.0402058 -0.0440391 -0.045388
357.0 -0.0342758 -0.0500347 -0.0157588 0.0421552 -0.0092585 -0.0328967 0.0455118 0.013086 -0.0225307 -0.0396362 -0.0434239 -0.0447556
358.0 -0.0337465 -0.049242 -0.0154954 0.0414942 -0.00912554 -0.0323687 0.0447696 0.0129468 -0.0221851 -0.0390658 -0.0428076 -0.0441219
359.0 -0.0332167 -0.0484512 -0.0152345 0.040834 -0.00899112 -0.0318429 0.0440264 0.0128038 -0.0218406 -0.0384953 -0.0421904 -0.0434872
360.0 -0.0326867 -0.0476629 -0.0149761 0.0401748 -0.00885529 -0.0313195 0.0432822 0.0126567 -0.0214974 -0.0379247 -0.0415725 -0.0428519
361.0 -0.0321567 -0.046877 -0.0147203 0.0395169 -0.00871823 -0.0307986 0.0425378 0.0125057 -0.0211554 -0.0373543 -0.0409543 -0.0422159
362.0 -0.0316272 -0.0460943 -0.0144671 0.0388607 -0.00858002 -0.0302807 0.0417935 0.0123509 -0.0208151 -0.0367843 -0.0403361 -0.0415798
363.0 -0.0310981 -0.0453147 -0.0142166 0.0382064 -0.00844074 -0.0297657 0.04105 0.0121927 -0.020476 -0.0362148 -0.0397178 -0.0409437
364.0 -0.0305701 -0.0445389 -0.0139688 0.0375545 -0.00830063 -0.0292539 0.0403075 0.0120308 -0.0201389 -0.0356462 -0.0391 -0.0403079
365.0 -0.0300432 -0.043767 -0.0137238 0.0369051 -0.0081597 -0.0287454 0.0395669 0.0118659 -0.0198035 -0.0350787 -0.0384828 -0.0396726
366.0 -0.0295179 -0.0429994 -0.0134814 0.0362586 -0.00801824 -0.0282404 0.0388285 0.0116978 -0.01947 -0.0345125 -0.0378666 -0.0390381
367.0 -0.0289944 -0.0422364 -0.013242 0.0356154 -0.00787624 -0.0277392 0.0380928 0.0115268 -0.0191386 -0.0339478 -0.0372515 -0.0384047
368.0 -0.028473 -0.0414783 -0.0130053 0.0349757 -0.00773389 -0.0272418 0.0373601 0.011353 -0.0188094 -0.033385 -0.0366379 -0.0377728
369.0 -0.0279541 -0.0407255 -0.0127714 0.0343398 -0.00759134 -0.0267484 0.0366314 0.0111769 -0.0184823 -0.0328241 -0.0360259 -0.0371425
370.0 -0.0274378 -0.0399781 -0.0125403 0.0337079 -0.00744875 -0.0262592 0.0359067 0.0109983 -0.0181577 -0.0322655 -0.0354159 -0.0365141
371.0 -0.0269244 -0.0392366 -0.0123122 0.0330805 -0.00730613 -0.0257744 0.0351866 0.0108177 -0.0178356 -0.0317093 -0.0348082 -0.0358879
372.0 -0.0264144 -0.0385011 -0.0120868 0.0324577 -0.0071638 -0.0252939 0.0344716 0.0106353 -0.017516 -0.0311558 -0.034203 -0.0352642
373.0 -0.0259078 -0.037772 -0.0118642 0.0318399 -0.00702177 -0.0248181 0.0337622 0.0104512 -0.0171993 -0.0306053 -0.0336005 -0.0346433
374.0 -0.025405 -0.0370496 -0.0116446 0.0312273 -0.00688023 -0.0243471 0.0330586 0.0102655 -0.016885 -0.030058 -0.0330011 -0.0340255
375.0 -0.0249063 -0.036334 -0.0114277 0.0306201 -0.00673929 -0.0238808 0.0323615 0.0100787 -0.0165739 -0.0295141 -0.0324052 -0.033411
376.0 -0.0244118 -0.0356255 -0.0112137 0.0300186 -0.00659903 -0.0234196 0.0316712 0.00989114 -0.0162656 -0.0289738 -0.0318127 -0.0328002
377.0 -0.0239219 -0.0349243 -0.0110025 0.0294231 -0.00645971 -0.0229634 0.0309878 0.00970255 -0.0159604 -0.0284372 -0.0312241 -0.0321932
378.0 -0.0234367 -0.0342308 -0.0107941 0.0288337 -0.00632126 -0.0225125 0.0303121 0.00951356 -0.0156583 -0.0279048 -0.0306395 -0.0315904
379.0 -0.0229565 -0.0335451 -0.0105886 0.0282508 -0.00618395 -0.0220669 0.029644 0.00932403 -0.0153595 -0.0273767 -0.0300594 -0.030992
380.0 -0.0224815 -0.0328674 -0.0103859 0.0276744 -0.00604777 -0.0216267 0.0289842 0.0091346 -0.0150638 -0.026853 -0.0294839 -0.0303983
381.0 -0.0220119 -0.0321979 -0.010186 0.0271049 -0.00591296 -0.021192 0.0283328 0.0089452 -0.0147716 -0.026334 -0.0289133 -0.0298095
382.0 -0.0215479 -0.0315368 -0.00998891 0.0265424 -0.00577951 -0.0207629 0.0276902 0.00875621 -0.0144828 -0.0258199 -0.0283477 -0.0292259
383.0 -0.0210897 -0.0308843 -0.00979461 0.025987 -0.00564756 -0.0203395 0.0270566 0.00856755 -0.0141975 -0.0253108 -0.0277874 -0.0286478
384.0 -0.0206376 -0.0302406 -0.00960308 0.0254391 -0.00551724 -0.0199219 0.0264322 0.00837955 -0.0139159 -0.0248071 -0.0272328 -0.0280755
385.0 -0.0201914 -0.0296058 -0.00941436 0.0248986 -0.00538853 -0.0195101 0.0258175 0.00819275 -0.0136377 -0.0243087 -0.0266839 -0.0275089
386.0 -0.0197517 -0.02898 -0.00922832 0.0243658 -0.00526167 -0.0191042 0.0252123 0.00800685 -0.0133634 -0.0238161 -0.026141 -0.0269485
387.0 -0.0193183 -0.0283635 -0.00904521 0.0238409 -0.00513655 -0.0187044 0.024617 0.00782222 -0.0130928 -0.0233292 -0.0256043 -0.0263945
388.0 -0.0188915 -0.0277562 -0.00886465 0.0233238 -0.00501343 -0.0183104 0.0240319 0.00763905 -0.0128259 -0.0228483 -0.025074 -0.025847
389.0 -0.0184714 -0.0271584 -0.00868699 0.0228149 -0.0048922 -0.0179227 0.0234569 0.0074575 -0.0125628 -0.0223735 -0.0245503 -0.0253064
390.0 -0.0180581 -0.0265702 -0.00851209 0.0223141 -0.00477299 -0.0175411 0.0228922 0.00727761 -0.0123038 -0.021905 -0.0240333 -0.0247726
391.0 -0.0176516 -0.0259914 -0.00833978 0.0218215 -0.00465592 -0.0171656 0.0223381 0.00709972 -0.0120485 -0.0214428 -0.0235232 -0.0242458
392.0 -0.0172522 -0.0254225 -0.00817027 0.0213373 -0.00454096 -0.0167964 0.0217945 0.00692395 -0.0117973 -0.0209872 -0.0230202 -0.0237264
393.0 -0.0168598 -0.0248634 -0.0080036 0.0208616 -0.00442808 -0.0164335 0.0212614 0.0067501 -0.0115501 -0.0205383 -0.0225245 -0.0232146
394.0 -0.0164745 -0.024314 -0.00783951 0.0203942 -0.00431749 -0.0160768 0.0207392 0.00657866 -0.0113069 -0.020096 -0.0220361 -0.0227102
395.0 -0.0160964 -0.0237745 -0.00767809 0.0199354 -0.00420914 -0.0157263 0.0202278 0.00640981 -0.0110677 -0.0196605 -0.0215551 -0.0222134
396.0 -0.0157254 -0.023245 -0.0075196 0.0194852 -0.0041029 -0.0153823 0.0197268 0.00624314 -0.0108327 -0.0192322 -0.0210819 -0.0217247
397.0 -0.0153618 -0.0227254 -0.00736366 0.0190436 -0.00399905 -0.0150445 0.0192367 0.00607907 -0.0106018 -0.0188108 -0.0206163 -0.0212438
398.0 -0.0150053 -0.0222157 -0.00721033 0.0186105 -0.0038975 -0.014713 0.0187575 0.00591789 -0.0103748 -0.0183963 -0.0201584 -0.0207709
399.0 -0.0146562 -0.0217161 -0.00705987 0.0181861 -0.00379816 -0.014388 0.0182889 0.00575936 -0.0101521 -0.0179893 -0.0197085 -0.0203061
400.0 -0.0143144 -0.0212263 -0.00691196 0.0177703 -0.0037012 -0.0140691 0.0178309 0.00560355 -0.0099335 -0.0175893 -0.0192666 -0.0198496
401.0 -0.0139798 -0.0207465 -0.00676679 0.0173631 -0.00360648 -0.0137567 0.0173837 0.00545078 -0.00971902 -0.0171967 -0.0188325 -0.0194013
402.0 -0.0136524 -0.0202766 -0.00662419 0.0169645 -0.0035141 -0.0134504 0.016947 0.00530084 -0.00950858 -0.0168112 -0.0184065 -0.0189613
403.0 -0.0133323 -0.0198167 -0.0064844 0.0165745 -0.00342393 -0.0131505 0.0165208 0.00515385 -0.00930241 -0.0164332 -0.0179888 -0.0185297
404.0 -0.0130193 -0.0193665 -0.00634716 0.0161929 -0.00333608 -0.0128568 0.016105 0.00500992 -0.00910028 -0.0160626 -0.017579 -0.0181064
405.0 -0.0127136 -0.018926 -0.00621248 0.0158198 -0.00325054 -0.0125693 0.0156994 0.00486886 -0.0089023 -0.0156992 -0.0171774 -0.0176915
406.0 -0.0124149 -0.0184954 -0.00608056 0.0154551 -0.00316715 -0.012288 0.0153044 0.00473113 -0.00870831 -0.0153432 -0.0167839 -0.0172851
407.0 -0.0121232 -0.0180743 -0.00595115 0.0150987 -0.00308601 -0.0120127 0.0149191 0.00459619 -0.00851846 -0.0149946 -0.0163986 -0.016887
408.0 -0.0118385 -0.0176629 -0.00582443 0.0147507 -0.00300704 -0.0117437 0.0145437 0.00446443 -0.0083327 -0.0146533 -0.0160214 -0.0164974
409.0 -0.0115608 -0.017261 -0.00570015 0.0144109 -0.00293033 -0.0114806 0.0141785 0.0043357 -0.00815096 -0.0143193 -0.0156523 -0.0161161
410.0 -0.0112898 -0.0168684 -0.00557858 0.0140791 -0.00285562 -0.0112235 0.0138228 0.00421016 -0.00797311 -0.0139926 -0.0152912 -0.0157432
411.0 -0.0110256 -0.0164851 -0.00545952 0.0137553 -0.00278304 -0.0109723 0.0134763 0.0040875 -0.00779937 -0.0136731 -0.0149382 -0.0153785
412.0 -0.0107681 -0.016111 -0.00534298 0.0134395 -0.00271254 -0.010727 0.0131396 0.003968 -0.00762947 -0.0133608 -0.0145932 -0.0150221
413.0 -0.0105172 -0.0157461 -0.00522895 0.0131316 -0.00264411 -0.0104875 0.012812 0.00385142 -0.00746353 -0.0130558 -0.0142561 -0.0146739
414.0 -0.0102727 -0.0153901 -0.00511739 0.0128314 -0.00257766 -0.0102537 0.0124933 0.00373784 -0.00730147 -0.0127578 -0.0139268 -0.0143338
415.0 -0.0100346 -0.0150428 -0.0050082 0.0125387 -0.00251319 -0.0100255 0.012184 0.00362752 -0.007143 -0.0124666 -0.0136052 -0.0140017
416.0 -0.00980275 -0.0147044 -0.00490163 0.0122536 -0.00245056 -0.009803 0.0118827 0.00351972 -0.00698858 -0.0121826 -0.0132915 -0.0136776
417.0 -0.00957709 -0.0143746 -0.00479747 0.0119758 -0.00238981 -0.00958601 0.0115902 0.00341497 -0.00683787 -0.0119055 -0.0129855 -0.0133615
418.0 -0.00935759 -0.0140532 -0.00469557 0.0117054 -0.00233101 -0.00937436 0.0113063 0.0033131 -0.00669075 -0.0116351 -0.0126868 -0.0130531
419.0 -0.00914391 -0.01374 -0.00459609 0.011442 -0.00227391 -0.00916805 0.0110304 0.00321421 -0.00654718 -0.0113713 -0.0123957 -0.0127524
420.0 -0.00893608 -0.013435 -0.00449896 0.0111856 -0.00221856 -0.008967 0.0107623 0.00311783 -0.00640732 -0.0111143 -0.0121119 -0.0124593
421.0 -0.00873399 -0.0131381 -0.00440411 0.010936 -0.00216494 -0.00877111 0.0105023 0.00302439 -0.00627087 -0.0108637 -0.0118352 -0.0121736
422.0 -0.00853759 -0.0128491 -0.00431153 0.0106934 -0.00211303 -0.00858032 0.0102501 0.00293367 -0.00613794 -0.0106196 -0.0115658 -0.0118954
423.0 -0.0083466 -0.0125679 -0.00422132 0.0104573 -0.00206264 -0.00839461 0.0100049 0.00284537 -0.00600853 -0.0103818 -0.0113035 -0.0116245
424.0 -0.00816102 -0.0122942 -0.0041332 0.0102276 -0.00201391 -0.00821372 0.00976703 0.00275967 -0.00588243 -0.0101503 -0.011048 -0.0113606
425.0 -0.00798065 -0.0120279 -0.00404724 0.0100043 -0.0019667 -0.00803757 0.00953666 0.00267685 -0.00575944 -0.00992473 -0.0107992 -0.0111037
426.0 -0.00780537 -0.0117689 -0.0039635 0.00978712 -0.00192094 -0.00786618 0.00931301 0.00259635 -0.00563973 -0.00970525 -0.0105571 -0.0108538
427.0 -0.0076352 -0.0115171 -0.00388188 0.00957613 -0.00187666 -0.00769948 0.00909584 0.00251799 -0.00552338 -0.00949176 -0.0103217 -0.0106106
428.0 -0.00746997 -0.0112723 -0.00380231 0.00937112 -0.00183383 -0.00753729 0.00888541 0.00244235 -0.00541003 -0.00928402 -0.0100926 -0.0103741
429.0 -0.0073095 -0.0110343 -0.00372479 0.0091719 -0.00179236 -0.00737954 0.00868151 0.00236881 -0.0052998 -0.00908196 -0.00986983 -0.0101441
430.0 -0.00715355 -0.0108028 -0.00364921 0.00897815 -0.00175217 -0.00722598 0.00848375 0.00229778 -0.00519232 -0.00888526 -0.00965303 -0.00992031
431.0 -0.00700213 -0.0105777 -0.00357562 0.00878994 -0.00171326 -0.00707668 0.00829192 0.00222892 -0.00508787 -0.00869412 -0.00944236 -0.00970282
432.0 -0.0068553 -0.0103593 -0.00350399 0.0086073 -0.00167566 -0.00693164 0.00810592 0.00216199 -0.00498643 -0.00850839 -0.00923769 -0.0094915
433.0 -0.00671276 -0.0101471 -0.00343434 0.00842993 -0.00163921 -0.00679072 0.0079256 0.0020972 -0.00488777 -0.00832789 -0.00903879 -0.00928619
434.0 -0.00657443 -0.00994088 -0.00336645 0.00825765 -0.00160399 -0.00665366 0.00775097 0.00203456 -0.00479177 -0.0081524 -0.0088455 -0.00908665
435.0 -0.00644013 -0.00974054 -0.00330041 0.00809034 -0.00156986 -0.00652048 0.00758194 0.00197407 -0.00469841 -0.00798189 -0.0086577 -0.00889281
436.0 -0.0063097 -0.00954574 -0.00323604 0.00792772 -0.00153683 -0.00639089 0.00741775 0.00191538 -0.00460755 -0.00781606 -0.00847511 -0.00870434
437.0 -0.0061832 -0.00935656 -0.00317336 0.00776988 -0.00150492 -0.00626496 0.00725864 0.00185856 -0.00451926 -0.007655 -0.0082978 -0.00852134
438.0 -0.00606058 -0.0091732 -0.00311262 0.00761689 -0.00147398 -0.00614291 0.00710454 0.00180359 -0.00443365 -0.00749879 -0.00812583 -0.00834384
439.0 -0.00594159 -0.0089951 -0.00305351 0.00746835 -0.00144404 -0.0060243 0.00695525 0.00175033 -0.00435046 -0.00734709 -0.00795884 -0.0081715
440.0 -0.00582606 -0.00882198 -0.00299592 0.00732402 -0.00141507 -0.00590895 0.00681046 0.00169866 -0.0042696 -0.00719968 -0.00779661 -0.00800407
441.0 -0.00571395 -0.00865396 -0.00294001 0.00718396 -0.00138697 -0.00579699 0.00667017 0.00164899 -0.00419096 -0.00705652 -0.00763911 -0.00784151
442.0 -0.00560522 -0.00849064 -0.00288542 0.00704793 -0.0013599 -0.00568803 0.00653447 0.00160106 -0.00411435 -0.00691733 -0.00748605 -0.00768359
443.0 -0.00549969 -0.00833217 -0.00283248 0.00691593 -0.0013336 -0.00558232 0.00640263 0.00155439 -0.00404013 -0.00678237 -0.0073376 -0.00753041
444.0 -0.0053974 -0.00817845 -0.00278105 0.00678793 -0.00130817 -0.00547975 0.00627495 0.00150926 -0.00396811 -0.00665144 -0.0071936 -0.00738181
445.0 -0.00529816 -0.00802921 -0.00273106 0.00666368 -0.00128355 -0.00538013 0.00615138 0.00146582 -0.0038981 -0.00652432 -0.00705383 -0.00723761
446.0 -0.00520183 -0.00788432 -0.00268249 0.00654308 -0.00125967 -0.00528341 0.00603118 0.00142342 -0.00383021 -0.00640097 -0.00691821 -0.00709765
447.0 -0.00510834 -0.00774368 -0.00263534 0.00642601 -0.0012365 -0.00518951 0.00591504 0.00138277 -0.00376406 -0.0062811 -0.0067865 -0.00696178
448.0 -0.00501769 -0.00760696 -0.00258927 0.00631233 -0.00121421 -0.00509812 0.00580252 0.00134353 -0.00369981 -0.00616475 -0.00665864 -0.00682988
449.0 -0.00492972 -0.00747418 -0.00254446 0.00620195 -0.00119263 -0.00500932 0.0056935 0.00130559 -0.00363741 -0.00605179 -0.00653456 -0.00670187
450.0 -0.00484425 -0.00734544 -0.00250119 0.00609484 -0.00117153 -0.00492331 0.00558748 0.00126871 -0.00357678 -0.00594218 -0.00641417 -0.00657768
451.0 -0.00476134 -0.00722041 -0.00245908 0.00599088 -0.00115113 -0.00483975 0.00548465 0.0012331 -0.00351797 -0.00583583 -0.00629736 -0.0064572
452.0 -0.00468106 -0.00709906 -0.00241801 0.00589006 -0.00113153 -0.00475853 0.00538519 0.00119864 -0.0034609 -0.00573267 -0.00618407 -0.00634033
453.0 -0.00460311 -0.00698143 -0.00237832 0.00579227 -0.0011124 -0.00467987 0.00528884 0.00116533 -0.00340556 -0.00563267 -0.00607425 -0.00622705
454.0 -0.00452734 -0.006867 -0.00233966 0.00569717 -0.00109384 -0.00460333 0.00519546 0.00113333 -0.00335159 -0.00553541 -0.00596751 -0.00611696
455.0 -0.00445378 -0.00675574 -0.00230196 0.00560476 -0.00107591 -0.00452885 0.00510448 0.00110235 -0.00329907 -0.0054409 -0.00586382 -0.00601004
456.0 -0.00438236 -0.00664756 -0.00226519 0.00551496 -0.00105858 -0.00445638 0.00501643 0.0010723 -0.0032481 -0.00534913 -0.00576312 -0.00590618
457.0 -0.00431299 -0.00654265 -0.00222966 0.00542782 -0.00104166 -0.00438616 0.00493103 0.00104323 -0.00319857 -0.00526008 -0.00566547 -0.00580549
458.0 -0.00424573 -0.00644092 -0.00219519 0.00534333 -0.00102527 -0.00431805 0.00484843 0.00101527 -0.00315059 -0.00517384 -0.00557085 -0.00570792
459.0 -0.00418049 -0.00634221 -0.00216173 0.00526135 -0.00100938 -0.00425197 0.00476807 0.000988202 -0.003104 -0.00509013 -0.00547903 -0.00561325
460.0 -0.00411708 -0.00624625 -0.00212916 0.00518167 -0.000993959 -0.00418771 0.00468977 0.000961851 -0.00305873 -0.00500882 -0.00538985 -0.00552129
461.0 -0.00405543 -0.00615284 -0.00209741 0.00510414 -0.000979009 -0.00412513 0.0046139 0.000936248 -0.00301467 -0.00492975 -0.00530318 -0.00543191
462.0 -0.00399549 -0.00606198 -0.00206649 0.00502873 -0.000964501 -0.00406423 0.00454045 0.000911718 -0.00297176 -0.00485294 -0.00521899 -0.00534513
463.0 -0.00393721 -0.00597356 -0.00203635 0.00495538 -0.000950426 -0.00400496 0.00446948 0.000888489 -0.00292979 -0.00477815 -0.0051371 -0.00526073
464.0 -0.0038806 -0.00588779 -0.00200719 0.00488419 -0.000936705 -0.00394749 0.00440038 0.000865968 -0.00288907 -0.00470562 -0.00505769 -0.00517889
465.0 -0.00382575 -0.00580461 -0.00197886 0.00481518 -0.000923444 -0.00389173 0.00433288 0.000843605 -0.00284985 -0.00463542 -0.00498074 -0.00509955
466.0 -0.00377237 -0.00572366 -0.00195129 0.00474801 -0.000910541 -0.00383747 0.00426729 0.00082179 -0.00281162 -0.00456709 -0.00490591 -0.00502241
467.0 -0.00372055 -0.00564495 -0.0019244 0.00468275 -0.000898071 -0.00378468 0.00420367 0.000800788 -0.00277459 -0.00450086 -0.00483333 -0.00494758
468.0 -0.00366993 -0.00556844 -0.00189851 0.00461918 -0.000885711 -0.00373347 0.00414194 0.000781013 -0.00273829 -0.00443635 -0.00476273 -0.00487483
469.0 -0.00362069 -0.00549401 -0.00187332 0.00455735 -0.000873683 -0.00368367 0.00408207 0.00076197 -0.00270287 -0.0043736 -0.00469408 -0.0048041
470.0 -0.00357297 -0.00542138 -0.0018484 0.00449717 -0.000862283 -0.00363489 0.00402386 0.000743269 -0.00266851 -0.00431257 -0.0046273 -0.00473527
471.0 -0.00352652 -0.00535045 -0.00182393 0.00443849 -0.000851293 -0.00358719 0.00396753 0.000725191 -0.00263487 -0.00425298 -0.00456217 -0.00466818
472.0 -0.00348125 -0.00528167 -0.00180042 0.00438146 -0.000840414 -0.00354104 0.00391237 0.000707623 -0.00260226 -0.00419524 -0.00449903 -0.00460313
473.0 -0.00343716 -0.0052151 -0.00177793 0.00432613 -0.000829616 -0.00349651 0.00385846 0.000690506 -0.00257077 -0.00413936 -0.00443789 -0.00454013
474.0 -0.00339426 -0.00515022 -0.00175596 0.00427224 -0.000819147 -0.00345309 0.0038061 0.000674139 -0.00254002 -0.00408498 -0.00437841 -0.00447885
475.0 -0.00335261 -0.005087 -0.00173439 0.0042198 -0.000809113 -0.00341069 0.00375528 0.000658227 -0.00251012 -0.00403207 -0.00432055 -0.00441922
476.0 -0.00331204 -0.00502532 -0.00171328 0.00416868 -0.000799376 -0.0033693 0.00370598 0.000642737 -0.00248092 -0.00398049 -0.00426415 -0.00436113
477.0 -0.00327244 -0.00496508 -0.00169264 0.00411876 -0.000789897 -0.00332886 0.00365818 0.000628007 -0.00245223 -0.0039301 -0.00420914 -0.0043045
478.0 -0.00323383 -0.00490638 -0.00167256 0.0040701 -0.000780635 -0.00328947 0.00361158 0.000613818 -0.00242429 -0.00388105 -0.00415561 -0.00424936
479.0 -0.0031961 -0.00484924 -0.00165314 0.00402267 -0.000771482 -0.00325119 0.00356586 0.000599845 -0.00239718 -0.00383341 -0.00410357 -0.00419577
480.0 -0.00315933 -0.00479342 -0.00163409 0.00397637 -0.000762617 -0.00321375 0.00352122 0.000586409 -0.00237064 -0.00378692 -0.00405282 -0.00414352
481.0 -0.00312366 -0.00473918 -0.00161552 0.00393142 -0.000754067 -0.00317735 0.00347793 0.000573344 -0.00234493 -0.00374178 -0.00400355 -0.00409277
482.0 -0.0030889 -0.00468649 -0.00159759 0.00388769 -0.000745657 -0.00314204 0.00343579 0.000560626 -0.00231994 -0.00369792 -0.00395566 -0.00404345
483.0 -0.003055 -0.00463522 -0.00158022 0.00384511 -0.000737391 -0.00310772 0.00339477 0.000548378 -0.00229552 -0.00365522 -0.00390908 -0.00399551
484.0 -0.00302185 -0.00458493 -0.00156308 0.00380339 -0.000729389 -0.003074 0.00335451 0.000536288 -0.00227173 -0.00361353 -0.00386355 -0.00394862
485.0 -0.00298938 -0.00453559 -0.00154621 0.00376249 -0.000721583 -0.0030409 0.00331526 0.000524625 -0.00224842 -0.00357274 -0.00381905 -0.00390278
486.0 -0.00295765 -0.00448744 -0.00152978 0.00372255 -0.000713935 -0.00300861 0.00327721 0.000513676 -0.00222543 -0.00353286 -0.0037756 -0.00385809
487.0 -0.00292683 -0.00444051 -0.00151368 0.00368367 -0.000706579 -0.00297709 0.00324026 0.000503167 -0.00220296 -0.00349396 -0.00373325 -0.00381453
488.0 -0.00289671 -0.00439489 -0.00149817 0.0036458 -0.00069927 -0.00294653 0.00320409 0.00049289 -0.00218116 -0.00345619 -0.0036921 -0.00377217
489.0 -0.0028673 -0.00435024 -0.00148294 0.00360877 -0.000692178 -0.00291659 0.00316869 0.000482767 -0.00215992 -0.00341932 -0.00365194 -0.00373084
490.0 -0.0028385 -0.00430664 -0.00146814 0.00357257 -0.000685183 -0.00288739 0.00313389 0.000472763 -0.00213918 -0.00338332 -0.00361271 -0.00369049
491.0 -0.0028104 -0.00426401 -0.00145361 0.0035372 -0.000678396 -0.00285881 0.00309973 0.000462814 -0.00211914 -0.00334833 -0.00357455 -0.00365118
492.0 -0.00278298 -0.00422236 -0.00143938 0.00350267 -0.000671799 -0.00283087 0.0030664 0.000453241 -0.00209953 -0.00331421 -0.00353732 -0.00361284
493.0 -0.00275609 -0.00418164 -0.00142556 0.00346886 -0.000665263 -0.0028036 0.00303431 0.000444486 -0.00208001 -0.00328067 -0.00350086 -0.00357536
494.0 -0.00272975 -0.00414189 -0.00141215 0.00343582 -0.0006588 -0.00277702 0.00300296 0.000436111 -0.00206078 -0.00324781 -0.00346516 -0.00353868
495.0 -0.00270401 -0.00410295 -0.00139894 0.00340348 -0.000652534 -0.00275094 0.00297216 0.000427795 -0.00204219 -0.00321584 -0.00343039 -0.00350291
496.0 -0.00267886 -0.0040648 -0.00138594 0.00337183 -0.00064646 -0.00272537 0.00294217 0.000419603 -0.0020241 -0.00318468 -0.00339647 -0.003468
497.0 -0.00265422 -0.00402717 -0.00137294 0.0033407 -0.000640642 -0.00270005 0.00291278 0.000411626 -0.00200621 -0.00315395 -0.00336308 -0.00343366
498.0 -0.00263002 -0.00399024 -0.00136022 0.00331013 -0.000634901 -0.00267523 0.0028837 0.000403657 -0.00198866 -0.00312379 -0.00333029 -0.00339994
499.0 -0.00260634 -0.00395447 -0.00134813 0.00328041 -0.000629107 -0.0026513 0.00285498 0.000395825 -0.00197164 -0.00309455 -0.00329848 -0.00336724
500.0 -0.00258327 -0.00391982 -0.00133655 0.00325155 -0.000623358 -0.00262819 0.0028272 0.000388585 -0.00195505 -0.00306623 -0.0032677 -0.00333559
501.0 -0.00256065 -0.00388576 -0.00132511 0.00322321 -0.000617772 -0.00260544 0.00280016 0.000381678 -0.00193878 -0.00303846 -0.00323752 -0.00330455
502.0 -0.00253843 -0.0038521 -0.00131367 0.00319527 -0.00061238 -0.00258289 0.00277372 0.000374863 -0.00192277 -0.00301107 -0.00320775 -0.00327393
503.0 -0.00251657 -0.00381894 -0.00130237 0.00316776 -0.000607103 -0.00256065 0.00274779 0.000368094 -0.00190696 -0.0029841 -0.00317847 -0.00324384
504.0 -0.00249521 -0.00378642 -0.0012912 0.00314081 -0.000602003 -0.00253881 0.00272237 0.000361498 -0.00189143 -0.00295771 -0.00314985 -0.00321443
505.0 -0.00247421 -0.00375461 -0.00128041 0.00311441 -0.0005969 -0.00251751 0.00269742 0.000355153 -0.00187623 -0.00293195 -0.0031219 -0.00318572
506.0 -0.00245364 -0.00372352 -0.00126988 0.00308858 -0.000591878 -0.0024967 0.00267281 0.000348813 -0.00186143 -0.00290678 -0.00309457 -0.00315761
507.0 -0.0024335 -0.00369298 -0.00125949 0.00306324 -0.000587006 -0.00247624 0.00264883 0.000342886 -0.00184675 -0.00288196 -0.00306767 -0.00312997
508.0 -0.00241362 -0.00366299 -0.00124937 0.0030383 -0.000582124 -0.00245618 0.00262515 0.000337179 -0.00183233 -0.00285761 -0.00304126 -0.00310285
509.0 -0.00239413 -0.00363353 -0.0012394 0.00301383 -0.000577368 -0.00243646 0.00260187 0.000331607 -0.00181817 -0.00283375 -0.00301541 -0.0030763
510.0 -0.00237511 -0.00360459 -0.00122948 0.00298985 -0.000572814 -0.00241703 0.0025792 0.000326014 -0.00180447 -0.00281052 -0.0029902 -0.00305039
511.0 -0.00235637 -0.00357632 -0.00121995 0.00296635 -0.000568214 -0.00239813 0.00255681 0.000320374 -0.00179116 -0.00278788 -0.0029656 -0.00302508
512.0 -0.0023379 -0.00354854 -0.00121064 0.00294322 -0.000563631 -0.00237959 0.0025349 0.000314956 -0.00177791 -0.00276551 -0.00294135 -0.00300017
513.0 -0.00231969 -0.00352121 -0.00120152 0.00292045 -0.000559087 -0.00236136 0.00251357 0.000309854 -0.00176467 -0.00274338 -0.00291743 -0.00297564
514.0 -0.00230188 -0.00349423 -0.00119236 0.00289806 -0.00055476 -0.0023433 0.00249239 0.000304825 -0.00175168 -0.0027216 -0.00289387 -0.00295145
515.0 -0.00228445 -0.00346769 -0.00118324 0.00287607 -0.000550602 -0.00232547 0.00247162 0.000300018 -0.00173896 -0.00270027 -0.00287076 -0.00292771
516.0 -0.0022673 -0.00344172 -0.00117442 0.00285451 -0.000546441 -0.00230807 0.00245127 0.000295346 -0.00172664 -0.00267952 -0.00284823 -0.00290455
517.0 -0.00225034 -0.00341604 -0.00116571 0.00283319 -0.000542315 -0.00229087 0.00243114 0.00029075 -0.00171444 -0.00265903 -0.00282604 -0.00288175
518.0 -0.00223352 -0.00339069 -0.00115716 0.00281211 -0.00053818 -0.00227393 0.00241147 0.000286409 -0.00170212 -0.00263866 -0.00280406 -0.00285922
519.0 -0.00221703 -0.00336574 -0.00114871 0.00279138 -0.000534158 -0.00225722 0.00239211 0.000282107 -0.00169003 -0.00261863 -0.00278246 -0.00283707
520.0 -0.00220091 -0.00334141 -0.0011405 0.00277116 -0.000530204 -0.00224096 0.00237295 0.000277603 -0.00167839 -0.00259916 -0.0027614 -0.00281545
521.0 -0.00218505 -0.00331753 -0.00113248 0.00275129 -0.000526287 -0.002225 0.00235394 0.000272966 -0.00166711 -0.00258013 -0.00274076 -0.00279423
522.0 -0.00216946 -0.0032941 -0.00112463 0.00273178 -0.000522416 -0.00220936 0.00233532 0.000268559 -0.00165609 -0.00256153 -0.00272056 -0.00277347
523.0 -0.00215408 -0.00327095 -0.00111687 0.00271251 -0.000518603 -0.00219391 0.00231724 0.000264645 -0.001645 -0.00254308 -0.00270061 -0.00275299
524.0 -0.00213884 -0.00324791 -0.00110907 0.00269338 -0.000514888 -0.00217849 0.0022994 0.000261032 -0.00163377 -0.00252464 -0.00268074 -0.00273263
525.0 -0.0021239 -0.00322516 -0.00110125 0.00267453 -0.000511327 -0.0021632 0.00228179 0.000257393 -0.00162278 -0.0025065 -0.00266117 -0.00271256
526.0 -0.00210915 -0.00320274 -0.00109359 0.00265595 -0.000507784 -0.00214816 0.0022645 0.000253809 -0.00161195 -0.00248867 -0.00264194 -0.00269283
527.0 -0.00209452 -0.00318084 -0.00108632 0.00263768 -0.000504102 -0.00213358 0.00224737 0.000250108 -0.00160142 -0.00247126 -0.00262314 -0.00267353
528.0 -0.00208011 -0.00315934 -0.00107923 0.00261972 -0.000500436 -0.00211929 0.00223035 0.000246169 -0.00159124 -0.00245425 -0.00260471 -0.00265461
529.0 -0.00206591 -0.0031381 -0.00107219 0.002602 -0.00049686 -0.00210514 0.00221367 0.000242455 -0.00158106 -0.00243739 -0.00258649 -0.00263593
530.0 -0.00205191 -0.00311689 -0.00106498 0.0025844 -0.000493468 -0.00209093 0.00219726 0.00023906 -0.00157081 -0.00242053 -0.00256832 -0.00261731
531.0 -0.00203823 -0.00309591 -0.00105768 0.00256707 -0.000490276 -0.0020768 0.00218092 0.00023561 -0.0015608 -0.00240395 -0.00255042 -0.00259893
532.0 -0.00202482 -0.00307529 -0.00105047 0.00255006 -0.000487177 -0.00206288 0.0021651 0.000232395 -0.00155092 -0.00238766 -0.00253285 -0.0025809
533.0 -0.00201157 -0.00305514 -0.00104357 0.00253335 -0.000483999 -0.00204935 0.00214961 0.000229446 -0.00154116 -0.00237171 -0.00251567 -0.00256329
534.0 -0.00199828 -0.00303542 -0.00103713 0.00251685 -0.000480575 -0.00203628 0.00213399 0.000226376 -0.00153162 -0.00235611 -0.00249884 -0.00254604
535.0 -0.00198508 -0.00301597 -0.00103089 0.00250052 -0.000477092 -0.00202343 0.0021185 0.000223157 -0.00152232 -0.00234076 -0.00248226 -0.00252903
536.0 -0.00197205 -0.00299668 -0.00102463 0.00248437 -0.000473712 -0.00201065 0.00210322 0.000219925 -0.00151303 -0.00232547 -0.00246576 -0.00251212
537.0 -0.0019592 -0.00297745 -0.00101825 0.00246832 -0.000470477 -0.00199785 0.00208818 0.000216663 -0.00150385 -0.00231031 -0.00244939 -0.00249533
538.0 -0.00194658 -0.00295835 -0.00101176 0.00245247 -0.000467412 -0.00198505 0.00207336 0.000213543 -0.00149476 -0.0022953 -0.00243318 -0.0024787
539.0 -0.00193426 -0.00293945 -0.0010052 0.00243686 -0.00046453 -0.00197233 0.00205892 0.000210798 -0.00148567 -0.00228046 -0.0024172 -0.0024623
540.0 -0.00192224 -0.00292083 -0.00099859 0.00242154 -0.000461827 -0.00195971 0.00204498 0.000208317 -0.00147662 -0.00226581 -0.00240145 -0.00244616
541.0 -0.00191027 -0.00290246 -0.000992187 0.00240636 -0.000459042 -0.00194732 0.00203114 0.000205847 -0.00146767 -0.00225135 -0.00238593 -0.00243027
542.0 -0.00189821 -0.00288432 -0.000986111 0.00239126 -0.000456048 -0.00193521 0.00201713 0.00020328 -0.00145883 -0.00223704 -0.00237055 -0.00241453
543.0 -0.00188624 -0.00286651 -0.00098027 0.00237637 -0.000452983 -0.00192339 0.00200284 0.000200393 -0.00145025 -0.00222297 -0.00235539 -0.00239899
544.0 -0.00187442 -0.002849 -0.000974578 0.00236171 -0.000449923 -0.00191179 0.00198886 0.000197487 -0.00144189 -0.00220918 -0.0023405 -0.00238373
545.0 -0.00186277 -0.00283169 -0.000968919 0.00234723 -0.000446927 -0.00190031 0.00197513 0.000194602 -0.00143368 -0.00219562 -0.00232585 -0.00236868
546.0 -0.00185127 -0.00281452 -0.000963256 0.0023329 -0.000444006 -0.00188889 0.00196173 0.000191974 -0.00142547 -0.00218221 -0.00231138 -0.00235384
547.0 -0.00183994 -0.00279752 -0.000957586 0.00231873 -0.000441176 -0.00187755 0.00194847 0.000189493 -0.00141735 -0.00216898 -0.00229712 -0.00233922
548.0 -0.00182876 -0.00278062 -0.000951855 0.00230469 -0.000438454 -0.00186624 0.00193551 0.000187306 -0.00140915 -0.00215577 -0.00228293 -0.00232468
549.0 -0.00181776 -0.00276385 -0.000946089 0.00229081 -0.000435836 -0.00185497 0.0019228 0.000185119 -0.001401 -0.00214265 -0.00226884 -0.00231026
550.0 -0.00180689 -0.00274725 -0.000940355 0.00227707 -0.000433269 -0.0018438 0.00191016 0.000182771 -0.00139297 -0.00212963 -0.00225486 -0.00229595
551.0 -0.00179616 -0.00273087 -0.000934705 0.00226352 -0.000430729 -0.00183279 0.00189772 0.000180391 -0.00138506 -0.00211677 -0.00224102 -0.00228177
552.0 -0.00178543 -0.0027147 -0.000929272 0.00225006 -0.000428078 -0.00182199 0.00188529 0.000178116 -0.00137721 -0.00210405 -0.00222735 -0.00226776
553.0 -0.00177478 -0.00269873 -0.000923958 0.00223676 -0.00042541 -0.00181135 0.00187277 0.000175776 -0.00136948 -0.0020915 -0.00221384 -0.00225392
554.0 -0.00176419 -0.00268284 -0.000918654 0.00222351 -0.000422767 -0.00180075 0.00186034 0.000173482 -0.00136178 -0.00207904 -0.00220044 -0.00224019
555.0 -0.00175363 -0.00266711 -0.000913486 0.00221037 -0.00042007 -0.0017903 0.00184817 0.00017131 -0.00135415 -0.00206676 -0.00218725 -0.0022267
556.0 -0.00174328 -0.00265165 -0.000908374 0.00219747 -0.000417452 -0.00178001 0.00183608 0.000169143 -0.00134672 -0.00205473 -0.00217432 -0.00221345
557.0 -0.0017331 -0.00263635 -0.000903257 0.00218473 -0.00041492 -0.00176981 0.00182418 0.000167074 -0.00133936 -0.00204284 -0.00216153 -0.00220035
558.0 -0.00172305 -0.00262111 -0.000898059 0.00217208 -0.000412494 -0.00175958 0.00181233 0.000164913 -0.00133213 -0.00203105 -0.00214883 -0.00218732
559.0 -0.00171307 -0.00260587 -0.000892803 0.00215947 -0.000410132 -0.00174934 0.00180067 0.000162831 -0.00132486 -0.00201928 -0.00213617 -0.00217435
560.0 -0.00170316 -0.00259087 -0.000887705 0.00214701 -0.000407728 -0.00173929 0.00178915 0.000160723 -0.00131771 -0.00200767 -0.00212368 -0.00216155
561.0 -0.00169334 -0.00257606 -0.000882721 0.0021347 -0.000405311 -0.00172939 0.00177776 0.000158674 -0.00131056 -0.00199613 -0.00211127 -0.00214885
562.0 -0.00168364 -0.00256161 -0.000877966 0.00212262 -0.000402836 -0.00171979 0.00176663 0.000156783 -0.00130343 -0.00198474 -0.00209906 -0.00213635
563.0 -0.00167403 -0.00254745 -0.000873421 0.00211074 -0.000400303 -0.00171043 0.00175567 0.000155052 -0.00129637 -0.00197351 -0.00208703 -0.00212406
564.0 -0.00166453 -0.00253335 -0.000868818 0.00209894 -0.000397857 -0.00170108 0.00174464 0.000153133 -0.00128947 -0.00196241 -0.0020751 -0.00211185
565.0 -0.0016551 -0.00251908 -0.000863986 0.00208709 -0.000395555 -0.00169153 0.00173365 0.000151139 -0.00128256 -0.00195127 -0.00206314 -0.00209961
566.0 -0.00164576 -0.00250485 -0.000859085 0.0020753 -0.000393338 -0.00168197 0.00172276 0.000149159 -0.0012758 -0.00194029 -0.00205133 -0.0020875
567.0 -0.00163644 -0.00249058 -0.000854132 0.00206351 -0.000391156 -0.00167235 0.00171197 0.000147373 -0.00126895 -0.00192929 -0.00203953 -0.00207541
568.0 -0.0016272 -0.00247635 -0.000849147 0.00205177 -0.000389026 -0.00166275 0.00170124 0.000145641 -0.00126212 -0.00191833 -0.00202777 -0.00206336
569.0 -0.00161807 -0.00246227 -0.000844202 0.00204017 -0.000386932 -0.00165324 0.00169055 0.000143833 -0.00125542 -0.00190753 -0.00201616 -0.00205146
570.0 -0.00160902 -0.00244851 -0.000839485 0.00202877 -0.000384769 -0.001644 0.00167989 0.000141975 -0.00124886 -0.00189695 -0.00200479 -0.00203982
571.0 -0.00159994 -0.00243506 -0.000835115 0.0020175 -0.000382414 -0.00163509 0.00166951 0.00014029 -0.00124229 -0.00188649 -0.00199359 -0.00202837
572.0 -0.00159096 -0.00242194 -0.00083098 0.00200645 -0.000379991 -0.00162646 0.0016592 0.00013853 -0.00123588 -0.00187623 -0.00198257 -0.0020171
573.0 -0.00158207 -0.00240907 -0.000826998 0.00199557 -0.000377538 -0.00161803 0.001649 0.000136802 -0.00122952 -0.00186608 -0.00197167 -0.00200596
574.0 -0.00157338 -0.00239631 -0.000822937 0.00198485 -0.00037522 -0.00160963 0.00163892 0.000135107 -0.00122326 -0.00185603 -0.00196088 -0.00199492
575.0 -0.0015649 -0.00238354 -0.000818641 0.00197422 -0.000373131 -0.00160109 0.00162894 0.000133359 -0.00121715 -0.00184612 -0.00195022 -0.00198399
576.0 -0.00155651 -0.00237063 -0.000814128 0.00196357 -0.000371189 -0.00159238 0.00161914 0.000131633 -0.00121096 -0.00183612 -0.00193949 -0.001973
577.0 -0.00154808 -0.00235765 -0.000809575 0.00195286 -0.00036925 -0.00158361 0.00160929 0.00012995 -0.00120473 -0.0018261 -0.00192874 -0.00196198
578.0 -0.00153959 -0.00234467 -0.000805082 0.00194213 -0.000367255 -0.00157488 0.00159952 0.00012842 -0.00119848 -0.00181612 -0.00191804 -0.00195102
579.0 -0.00153106 -0.00233174 -0.000800679 0.0019314 -0.00036519 -0.00156621 0.00158985 0.000127073 -0.00119214 -0.00180615 -0.00190737 -0.00194012
580.0 -0.00152266 -0.00231886 -0.0007962 0.00192076 -0.000363231 -0.00155753 0.00158028 0.000125712 -0.00118586 -0.00179622 -0.00189675 -0.00192926
581.0 -0.00151446 -0.00230626 -0.0007918 0.00191036 -0.000361329 -0.00154903 0.00157083 0.000124168 -0.0011798 -0.00178651 -0.00188632 -0.00191858
582.0 -0.00150632 -0.00229395 -0.00078763 0.00190014 -0.000359345 -0.00154079 0.00156149 0.000122531 -0.00117386 -0.00177696 -0.00187607 -0.00190809
583.0 -0.00149816 -0.00228176 -0.000783601 0.00188996 -0.000357277 -0.00153268 0.00155219 0.000120935 -0.00116789 -0.00176742 -0.00186586 -0.00189766
584.0 -0.00149005 -0.00226975 -0.000779707 0.0018799 -0.000355171 -0.00152473 0.00154267 0.000119204 -0.00116212 -0.00175812 -0.00185587 -0.00188744
585.0 -0.00148208 -0.00225805 -0.000775976 0.00187007 -0.000353051 -0.00151701 0.00153326 0.000117549 -0.00115653 -0.00174907 -0.00184615 -0.00187747
586.0 -0.00147419 -0.00224644 -0.000772247 0.00186031 -0.000350971 -0.00150934 0.00152399 0.000116052 -0.00115091 -0.00174008 -0.00183649 -0.00186759
587.0 -0.00146635 -0.00223476 -0.000768413 0.00185056 -0.000348969 -0.00150159 0.00151479 0.000114539 -0.00114527 -0.00173106 -0.0018268 -0.00185767
588.0 -0.0014585 -0.00222306 -0.00076456 0.00184078 -0.00034697 -0.00149381 0.00150574 0.000113248 -0.0011395 -0.00172197 -0.00181709 -0.00184774
589.0 -0.00145067 -0.00221129 -0.000760623 0.00183098 -0.000345022 -0.00148596 0.00149679 0.000112059 -0.00113371 -0.00171287 -0.00180734 -0.00183777
590.0 -0.00144292 -0.00219945 -0.000756534 0.00182118 -0.000343192 -0.00147799 0.00148795 0.000110769 -0.00112797 -0.00170374 -0.00179756 -0.00182775
591.0 -0.00143525 -0.00218763 -0.000752382 0.00181144 -0.000341432 -0.00147 0.00147921 0.000109425 -0.00112228 -0.00169466 -0.00178781 -0.00181778
592.0 -0.00142771 -0.00217595 -0.000748238 0.00180183 -0.000339737 -0.00146209 0.00147063 0.000108133 -0.00111657 -0.0016856 -0.00177813 -0.00180789
593.0 -0.00142037 -0.00216458 -0.000744214 0.00179248 -0.000338079 -0.0014544 0.00146223 0.000106761 -0.00111108 -0.00167681 -0.00176872 -0.00179827
594.0 -0.00141318 -0.00215354 -0.000740359 0.00178336 -0.000336411 -0.00144695 0.00145387 0.000105227 -0.00110586 -0.00166832 -0.0017596 -0.00178891
595.0 -0.001406 -0.00214269 -0.00073669 0.00177435 -0.000334656 -0.00143969 0.00144562 0.000103755 -0.00110068 -0.00165995 -0.0017506 -0.0017797
596.0 -0.00139874 -0.00213192 -0.000733181 0.00176533 -0.00033278 -0.00143255 0.00143734 0.000102336 -0.00109547 -0.0016516 -0.00174166 -0.00177054
597.0 -0.00139138 -0.00212108 -0.000729703 0.00175623 -0.000330836 -0.00142539 0.00142887 0.000100898 -0.00109018 -0.0016432 -0.00173266 -0.00176134
598.0 -0.00138399 -0.00211017 -0.000726181 0.00174708 -0.000328904 -0.00141818 0.00142033 9.95413e-05 -0.00108482 -0.00163475 -0.00172362 -0.0017521
599.0 -0.0013766 -0.00209926 -0.000722659 0.00173793 -0.000326972 -0.00141096 0.00141176 9.83236e-05 -0.00107945 -0.00162632 -0.0017146 -0.00174288
600.0 -0.0013692 -0.00208842 -0.000719214 0.00172881 -0.000324996 -0.00140382 0.00140295 9.70123e-05 -0.00107418 -0.00161797 -0.00170563 -0.00173369
601.0 -0.00136192 -0.00207755 -0.000715638 0.00171973 -0.000323139 -0.0013966 0.0013944 9.57557e-05 -0.00106893 -0.0016096 -0.00169664 -0.00172449
602.0 -0.00135475 -0.00206663 -0.00071188 0.00171069 -0.000321437 -0.00138926 0.00138625 9.46575e-05 -0.00106357 -0.00160114 -0.00168761 -0.00171527
603.0 -0.00134774 -0.00205577 -0.00070803 0.00170176 -0.000319857 -0.0013819 0.00137826 9.356e-05 -0.00105828 -0.00159278 -0.00167869 -0.00170616
604.0 -0.00134085 -0.00204506 -0.000704216 0.00169295 -0.000318315 -0.00137464 0.00137037 9.24832e-05 -0.0010531 -0.00158459 -0.00166994 -0.00169722
605.0 -0.00133409 -0.00203467 -0.000700581 0.00168438 -0.000316755 -0.00136763 0.00136269 9.13934e-05 -0.00104812 -0.00157667 -0.00166145 -0.00168853
606.0 -0.00132753 -0.00202456 -0.000697034 0.00167604 -0.000315246 -0.0013608 0.00135525 9.03205e-05 -0.00104323 -0.00156889 -0.00165313 -0.00168001
607.0 -0.00132103 -0.00201469 -0.000693663 0.00166786 -0.000313683 -0.00135418 0.00134799 8.91993e-05 -0.00103841 -0.00156121 -0.00164492 -0.00167162
608.0 -0.00131457 -0.00200497 -0.0006904 0.00165977 -0.000312084 -0.00134768 0.0013406 8.78692e-05 -0.0010337 -0.00155363 -0.00163678 -0.00166328
609.0 -0.00130811 -0.00199525 -0.000687141 0.00165168 -0.000310486 -0.0013412 0.00133302 8.63801e-05 -0.00102906 -0.0015461 -0.00162867 -0.00165496
610.0 -0.00130154 -0.00198554 -0.000683998 0.00164354 -0.000308772 -0.00133477 0.00132537 8.4924e-05 -0.00102442 -0.0015386 -0.00162058 -0.00164667
611.0 -0.00129486 -0.00197574 -0.000680873 0.0016353 -0.000306995 -0.0013283 0.00131758 8.34764e-05 -0.00101971 -0.00153103 -0.00161244 -0.00163833
612.0 -0.00128808 -0.00196586 -0.000677786 0.00162697 -0.000305145 -0.00132182 0.00130975 8.21733e-05 -0.00101485 -0.00152335 -0.00160422 -0.00162993
613.0 -0.00128132 -0.00195595 -0.00067463 0.00161863 -0.000303345 -0.00131529 0.00130194 8.09959e-05 -0.00100997 -0.00151565 -0.00159597 -0.00162152
614.0 -0.00127462 -0.0019459 -0.000671284 0.00161026 -0.000301668 -0.00130859 0.00129423 8.00073e-05 -0.00100502 -0.00150788 -0.00158768 -0.00161306
615.0 -0.001268 -0.00193574 -0.000667744 0.00160187 -0.000300127 -0.00130174 0.00128666 7.90846e-05 -0.00100006 -0.00150013 -0.00157941 -0.00160461
616.0 -0.00126145 -0.00192559 -0.000664137 0.00159352 -0.000298658 -0.00129486 0.00127914 7.81275e-05 -0.000995216 -0.00149249 -0.00157125 -0.00159626
617.0 -0.00125495 -0.00191548 -0.00066053 0.00158521 -0.000297208 -0.001288 0.00127176 7.73268e-05 -0.000990304 -0.00148484 -0.00156312 -0.00158795
618.0 -0.00124857 -0.00190558 -0.000657011 0.00157708 -0.000295781 -0.0012813 0.00126446 7.65216e-05 -0.000985462 -0.0014773 -0.0015551 -0.00157977
619.0 -0.00124245 -0.00189593 -0.000653489 0.00156919 -0.000294478 -0.00127471 0.00125759 7.57548e-05 -0.000980733 -0.00146989 -0.0015472 -0.00157169
620.0 -0.00123645 -0.00188668 -0.000650231 0.00156157 -0.000293111 -0.00126846 0.00125083 7.4832e-05 -0.000976218 -0.00146273 -0.00153954 -0.00156384
621.0 -0.00123053 -0.00187784 -0.000647309 0.00155418 -0.00029161 -0.00126257 0.00124423 7.38601e-05 -0.000971879 -0.00145583 -0.00153214 -0.00155626
622.0 -0.00122465 -0.00186927 -0.000644624 0.00154696 -0.000290012 -0.00125695 0.00123752 7.26832e-05 -0.000967706 -0.00144912 -0.00152492 -0.00154887
623.0 -0.00121879 -0.00186074 -0.000641951 0.00153976 -0.000288418 -0.00125134 0.00123058 7.12953e-05 -0.000963577 -0.00144243 -0.00151771 -0.0015415
624.0 -0.00121294 -0.00185215 -0.000639215 0.00153254 -0.00028686 -0.00124568 0.0012236 6.98303e-05 -0.000959404 -0.00143567 -0.00151045 -0.00153408
625.0 -0.00120708 -0.00184348 -0.000636399 0.00152528 -0.000285341 -0.00123994 0.00121653 6.82783e-05 -0.000955256 -0.00142891 -0.00150317 -0.00152663
626.0 -0.00120116 -0.00183476 -0.000633602 0.00151796 -0.000283779 -0.00123418 0.00120952 6.68487e-05 -0.000951102 -0.00142217 -0.00149591 -0.00151919
627.0 -0.00119514 -0.00182587 -0.000630734 0.00151051 -0.000282203 -0.0012283 0.00120261 6.57805e-05 -0.000946812 -0.00141534 -0.00148858 -0.00151169
628.0 -0.00118907 -0.00181682 -0.00062775 0.00150294 -0.000280659 -0.00122228 0.00119565 6.48158e-05 -0.000942504 -0.00140849 -0.00148122 -0.00150415
629.0 -0.00118301 -0.0018076 -0.000624595 0.00149531 -0.000279206 -0.0012161 0.00118886 6.39918e-05 -0.000938056 -0.00140152 -0.00147378 -0.00149654
630.0 -0.00117702 -0.00179817 -0.000621157 0.0014876 -0.00027793 -0.00120967 0.00118231 6.32952e-05 -0.000933501 -0.00139442 -0.00146622 -0.00148882
631.0 -0.00117114 -0.0017887 -0.000617565 0.00147992 -0.000276786 -0.00120313 0.00117583 6.2582e-05 -0.000928961 -0.00138731 -0.00145865 -0.00148106
632.0 -0.00116527 -0.00177937 -0.000614095 0.00147232 -0.00027559 -0.00119673 0.00116933 6.19072e-05 -0.000924446 -0.00138026 -0.00145115 -0.00147338
633.0 -0.00115943 -0.00177033 -0.000610899 0.00146488 -0.000274264 -0.00119061 0.00116278 6.12362e-05 -0.000919983 -0.00137335 -0.00144379 -0.00146587
634.0 -0.00115368 -0.00176159 -0.000607914 0.00145763 -0.000272881 -0.00118475 0.0011562 6.04761e-05 -0.000915651 -0.0013666 -0.0014366 -0.00145854
635.0 -0.00114801 -0.00175317 -0.000605157 0.00145059 -0.000271427 -0.00117916 0.00114982 5.97496e-05 -0.000911391 -0.00136001 -0.0014296 -0.0014514
636.0 -0.00114238 -0.00174497 -0.000602587 0.00144367 -0.000269896 -0.00117378 0.00114353 5.90466e-05 -0.000907118 -0.00135348 -0.00142267 -0.00144437
637.0 -0.00113691 -0.00173702 -0.000600116 0.00143697 -0.000268396 -0.00116857 0.00113717 5.81478e-05 -0.000903055 -0.00134716 -0.00141595 -0.00143752
638.0 -0.00113158 -0.00172931 -0.000597727 0.00143045 -0.000266929 -0.00116352 0.00113099 5.71256e-05 -0.000899194 -0.00134106 -0.00140942 -0.00143087
639.0 -0.00112636 -0.00172173 -0.000595366 0.00142404 -0.000265497 -0.00115855 0.00112462 5.57586e-05 -0.000895585 -0.00133514 -0.00140304 -0.00142433
640.0 -0.00112117 -0.00171407 -0.000592902 0.00141762 -0.000264132 -0.00115348 0.00111819 5.42458e-05 -0.000892082 -0.00132928 -0.00139668 -0.00141779
641.0 -0.00111601 -0.00170634 -0.000590334 0.00141117 -0.000262836 -0.00114834 0.00111179 5.27824e-05 -0.000888577 -0.0013234 -0.00139029 -0.00141122
642.0 -0.0011108 -0.00169836 -0.000587559 0.00140458 -0.000261621 -0.00114296 0.0011055 5.1576e-05 -0.000884888 -0.00131733 -0.00138373 -0.00140447
643.0 -0.00110553 -0.00169017 -0.000584644 0.00139785 -0.000260442 -0.00113741 0.00109941 5.06176e-05 -0.000881054 -0.00131112 -0.00137703 -0.00139759
644.0 -0.00110025 -0.00168178 -0.000581533 0.00139101 -0.000259357 -0.00113166 0.00109344 4.97628e-05 -0.000877124 -0.00130481 -0.00137025 -0.00139062
645.0 -0.00109496 -0.00167328 -0.000578322 0.00138412 -0.000258318 -0.0011258 0.00108764 4.90496e-05 -0.000873091 -0.00129845 -0.00136346 -0.00138365
646.0 -0.00108959 -0.00166483 -0.00057524 0.00137721 -0.000257173 -0.00112003 0.00108189 4.83858e-05 -0.000869035 -0.00129211 -0.00135671 -0.00137675
647.0 -0.00108415 -0.0016565 -0.000572344 0.00137032 -0.000255903 -0.00111442 0.0010761 4.77086e-05 -0.000864977 -0.0012858 -0.00134999 -0.0013699
648.0 -0.00107869 -0.00164838 -0.000569694 0.00136354 -0.000254498 -0.00110904 0.0010703 4.70932e-05 -0.000860893 -0.00127954 -0.00134335 -0.00136314
649.0 -0.0010733 -0.00164043 -0.000567138 0.00135687 -0.00025308 -0.00110379 0.00106463 4.65834e-05 -0.000856787 -0.00127331 -0.00133676 -0.00135646
650.0 -0.00106802 -0.00163269 -0.00056467 0.00135035 -0.000251675 -0.00109868 0.00105902 4.61096e-05 -0.000852763 -0.00126722 -0.00133032 -0.00134992
651.0 -0.00106283 -0.00162511 -0.000562286 0.00134397 -0.00025027 -0.0010937 0.00105323 4.55219e-05 -0.00084886 -0.00126126 -0.00132401 -0.0013435
652.0 -0.00105771 -0.00161769 -0.000559977 0.0013377 -0.000248867 -0.00108883 0.00104737 4.48707e-05 -0.000845055 -0.00125542 -0.00131781 -0.0013372
653.0 -0.0010526 -0.00161038 -0.000557777 0.00133149 -0.000247413 -0.00108408 0.00104134 4.40839e-05 -0.000841376 -0.00124971 -0.00131172 -0.00133099
654.0 -0.00104758 -0.00160308 -0.000555499 0.00132533 -0.000246041 -0.00107929 0.00103527 4.3138e-05 -0.000837826 -0.00124407 -0.00130568 -0.00132482
655.0 -0.00104275 -0.00159575 -0.000552992 0.00131925 -0.000244881 -0.00107437 0.00102933 4.20331e-05 -0.000834394 -0.00123848 -0.00129965 -0.00131862
656.0 -0.00103806 -0.00158835 -0.000550297 0.00131321 -0.00024388 -0.00106933 0.0010235 4.08624e-05 -0.000830965 -0.00123283 -0.00129356 -0.00131236
657.0 -0.0010334 -0.00158092 -0.000547514 0.00130716 -0.000242945 -0.00106422 0.0010177 3.96924e-05 -0.000827549 -0.00122718 -0.00128746 -0.00130607
658.0 -0.00102883 -0.00157361 -0.00054478 0.00130122 -0.000242027 -0.0010592 0.00101194 3.85959e-05 -0.000824184 -0.00122164 -0.00128146 -0.0012999
659.0 -0.00102435 -0.00156636 -0.000542009 0.00129536 -0.000241172 -0.00105419 0.00100642 3.76233e-05 -0.000820804 -0.00121613 -0.00127553 -0.0012938
660.0 -0.00101986 -0.00155916 -0.000539303 0.00128951 -0.000240277 -0.00104923 0.0010011 3.67904e-05 -0.000817414 -0.00121066 -0.00126966 -0.00128777
661.0 -0.00101519 -0.0015519 -0.000536708 0.00128355 -0.000239241 -0.0010443 0.000995703 3.59723e-05 -0.000813978 -0.00120517 -0.00126376 -0.00128173
662.0 -0.00101032 -0.00154456 -0.000534245 0.00127744 -0.000238036 -0.0010394 0.000990296 3.51583e-05 -0.0008104 -0.00119954 -0.00125775 -0.00127561
663.0 -0.00100535 -0.00153724 -0.000531889 0.0012713 -0.000236731 -0.00103457 0.000985083 3.44404e-05 -0.000806791 -0.00119392 -0.00125177 -0.00126952
664.0 -0.00100038 -0.00153002 -0.000529637 0.0012652 -0.000235374 -0.00102983 0.000979888 3.37132e-05 -0.000803236 -0.00118838 -0.00124586 -0.0012635
665.0 -0.00099546 -0.00152293 -0.000527468 0.00125919 -0.000233996 -0.0010252 0.000974827 3.30759e-05 -0.000799697 -0.00118291 -0.00124003 -0.00125756
666.0 -0.00099061 -0.0015159 -0.000525289 0.00125325 -0.00023266 -0.00102059 0.000969902 3.26245e-05 -0.000796112 -0.00117744 -0.00123424 -0.00125167
667.0 -0.000985878 -0.00150897 -0.000523093 0.00124742 -0.000231392 -0.00101603 0.000965099 3.23024e-05 -0.000792509 -0.00117201 -0.0012285 -0.00124585
668.0 -0.000981228 -0.00150215 -0.000520921 0.00124169 -0.000230153 -0.00101154 0.000960262 3.19203e-05 -0.000788999 -0.00116668 -0.00122286 -0.0012401
669.0 -0.000976645 -0.00149537 -0.000518727 0.00123601 -0.000228959 -0.00100705 0.00095534 3.13892e-05 -0.000785643 -0.00116147 -0.0012173 -0.00123442
670.0 -0.000972116 -0.00148859 -0.000516471 0.00123035 -0.000227823 -0.00100253 0.00095024 3.06604e-05 -0.000782389 -0.00115628 -0.00121174 -0.00122872
671.0 -0.00096765 -0.00148176 -0.000514108 0.0012247 -0.000226771 -0.000997933 0.000944998 2.98577e-05 -0.000779145 -0.00115108 -0.00120616 -0.00122299
672.0 -0.000963252 -0.00147496 -0.000511703 0.0012191 -0.000225775 -0.000993329 0.00093966 2.90023e-05 -0.000775941 -0.00114591 -0.00120061 -0.0012173
673.0 -0.000958933 -0.0014682 -0.000509269 0.00121357 -0.000224832 -0.000988736 0.000934266 2.81252e-05 -0.000772743 -0.00114078 -0.00119511 -0.00121166
674.0 -0.000954655 -0.00146157 -0.000506914 0.00120811 -0.000223871 -0.000984242 0.000928851 2.7239e-05 -0.000769589 -0.00113573 -0.00118968 -0.00120609
675.0 -0.000950424 -0.001455 -0.00050458 0.00120271 -0.000222922 -0.000979792 0.00092347 2.64084e-05 -0.000766434 -0.00113069 -0.00118428 -0.00120056
676.0 -0.000946196 -0.0014484 -0.000502208 0.0011973 -0.000221994 -0.000975306 0.000918169 2.56089e-05 -0.000763213 -0.00112559 -0.00117882 -0.00119498
677.0 -0.000941943 -0.00144173 -0.000499784 0.00119184 -0.00022108 -0.000970755 0.000912864 2.47526e-05 -0.000759895 -0.00112036 -0.00117326 -0.00118931
678.0 -0.000937706 -0.001435 -0.00049729 0.00118635 -0.000220208 -0.000966143 0.000907622 2.3847e-05 -0.000756628 -0.00111517 -0.00116771 -0.00118365
679.0 -0.000933441 -0.00142825 -0.000494814 0.00118085 -0.000219313 -0.000961534 0.000902481 2.3053e-05 -0.000753376 -0.00111002 -0.00116221 -0.00117803
680.0 -0.000929097 -0.00142157 -0.000492468 0.00117533 -0.000218315 -0.000957017 0.0008973 2.22175e-05 -0.000750192 -0.00110495 -0.00115677 -0.00117246
681.0 -0.00092475 -0.00141505 -0.000490304 0.0011699 -0.000217223 -0.000952679 0.000892219 2.13345e-05 -0.000747113 -0.0011 -0.00115145 -0.00116702
682.0 -0.000920394 -0.00140871 -0.00048832 0.00116455 -0.000216037 -0.000948517 0.000887554 2.06249e-05 -0.000744042 -0.00109515 -0.00114626 -0.00116171
683.0 -0.000916062 -0.00140246 -0.000486403 0.00115926 -0.000214829 -0.000944434 0.000883232 2.01105e-05 -0.000740956 -0.00109036 -0.00114115 -0.0011565
684.0 -0.000911783 -0.0013963 -0.000484518 0.00115404 -0.000213632 -0.000940409 0.000878989 1.96275e-05 -0.000737927 -0.00108563 -0.00113611 -0.00115136
685.0 -0.000907625 -0.00139022 -0.000482594 0.00114892 -0.000212515 -0.000936407 0.000874787 1.91192e-05 -0.000734981 -0.001081 -0.00113115 -0.00114627
686.0 -0.000903575 -0.00138421 -0.000480631 0.00114389 -0.000211472 -0.000932419 0.000870666 1.86722e-05 -0.00073204 -0.0010764 -0.00112623 -0.00114124
687.0 -0.000899593 -0.00137818 -0.00047859 0.00113889 -0.000210501 -0.000928387 0.00086659 1.82379e-05 -0.00072908 -0.00107177 -0.00112129 -0.00113619
688.0 -0.000895691 -0.00137206 -0.000476374 0.00113388 -0.000209659 -0.000924219 0.000862603 1.78084e-05 -0.000726071 -0.00106706 -0.00111627 -0.00113105
689.0 -0.000891755 -0.00136596 -0.000474208 0.00112886 -0.000208774 -0.000920085 0.000858535 1.74082e-05 -0.00072301 -0.00106233 -0.00111126 -0.00112593
690.0 -0.000887783 -0.0013599 -0.000472121 0.00112384 -0.000207831 -0.000916012 0.00085427 1.6961e-05 -0.000719975 -0.00105764 -0.00110628 -0.00112085
691.0 -0.000883798 -0.00135389 -0.000470091 0.00111884 -0.000206853 -0.00091199 0.00084976 1.6389e-05 -0.000716984 -0.00105299 -0.00110133 -0.0011158
692.0 -0.000879794 -0.00134788 -0.000468085 0.00111384 -0.000205854 -0.000907982 0.0008452 1.57901e-05 -0.000713983 -0.00104833 -0.00109637 -0.00111076
693.0 -0.000875788 -0.0013419 -0.000466112 0.00110884 -0.000204838 -0.000904006 0.000840564 1.52081e-05 -0.000710951 -0.00104365 -0.00109141 -0.00110571
694.0 -0.000871787 -0.00133597 -0.000464181 0.00110388 -0.000203803 -0.000900074 0.000835765 1.45806e-05 -0.000707988 -0.00103903 -0.00108647 -0.00110068
695.0 -0.000867796 -0.00133 -0.000462205 0.0010989 -0.000202796 -0.000896104 0.000830809 1.37995e-05 -0.000705085 -0.00103441 -0.00108153 -0.00109563
696.0 -0.000863825 -0.00132408 -0.000460255 0.00109395 -0.000201785 -0.000892168 0.000825668 1.28546e-05 -0.000702278 -0.00102989 -0.00107666 -0.00109064
697.0 -0.000859877 -0.00131812 -0.000458248 0.001089 -0.000200814 -0.000888186 0.00082048 1.1856e-05 -0.000699519 -0.00102541 -0.00107182 -0.00108568
698.0 -0.000855952 -0.00131212 -0.000456167 0.00108403 -0.000199892 -0.000884142 0.000815297 1.08502e-05 -0.000696744 -0.00102091 -0.00106697 -0.00108071
699.0 -0.000852096 -0.00130611 -0.000454012 0.0010791 -0.000199042 -0.00088006 0.00081029 9.89404e-06 -0.000693971 -0.00101639 -0.00106211 -0.00107573
700.0 -0.000848375 -0.0013002 -0.000451825 0.00107429 -0.000198275 -0.000876013 0.000805501 9.06084e-06 -0.000691237 -0.00101194 -0.00105731 -0.0010708
701.0 -0.000844736 -0.00129442 -0.000449685 0.00106958 -0.000197525 -0.000872053 0.000800915 8.23311e-06 -0.000688592 -0.0010076 -0.00105262 -0.00106597
702.0 -0.000841145 -0.00128867 -0.00044753 0.00106491 -0.000196807 -0.000868102 0.000796576 7.45913e-06 -0.000685998 -0.00100333 -0.00104802 -0.00106124
703.0 -0.00083756 -0.00128292 -0.000445357 0.00106024 -0.000196102 -0.000864136 0.000792602 6.9407e-06 -0.000683286 -0.000999025 -0.00104342 -0.00105652
704.0 -0.000833933 -0.00127713 -0.000443201 0.00105553 -0.000195366 -0.000860168 0.000788909 6.62252e-06 -0.000680421 -0.000994619 -0.00103877 -0.00105176
705.0 -0.000830205 -0.00127135 -0.000441147 0.00105078 -0.000194529 -0.000856249 0.000785309 6.45887e-06 -0.00067745 -0.000990157 -0.00103407 -0.00104698
706.0 -0.00082646 -0.00126568 -0.000439225 0.00104607 -0.000193618 -0.000852455 0.000781752 6.34725e-06 -0.000674488 -0.00098574 -0.00102943 -0.00104226
707.0 -0.000822862 -0.00126028 -0.000437413 0.00104157 -0.000192725 -0.000848844 0.000778284 6.1397e-06 -0.000671693 -0.000981509 -0.00102495 -0.00103771
708.0 -0.000819325 -0.00125507 -0.000435745 0.0010372 -0.00019179 -0.000845408 0.000774837 5.82065e-06 -0.000669046 -0.000977434 -0.00102062 -0.0010333
709.0 -0.000815774 -0.00125001 -0.000434237 0.00103289 -0.000190769 -0.000842124 0.000771325 5.43772e-06 -0.000666444 -0.000973423 -0.00101635 -0.00102896
710.0 -0.000812161 -0.00124493 -0.000432764 0.00102854 -0.000189698 -0.000838845 0.000767666 5.0448e-06 -0.000663749 -0.00096931 -0.001012 -0.00102455
711.0 -0.000808595 -0.00123977 -0.000431179 0.00102418 -0.000188708 -0.000835476 0.000763932 4.59399e-06 -0.000661084 -0.000965198 -0.00100764 -0.00102011
712.0 -0.000805071 -0.00123458 -0.000429512 0.00101983 -0.00018778 -0.000832047 0.000760149 4.10256e-06 -0.000658451 -0.000961114 -0.00100329 -0.00101568
713.0 -0.000801487 -0.00122934 -0.00042785 0.00101541 -0.000186818 -0.000828594 0.00075621 3.50411e-06 -0.00065584 -0.000957026 -0.000998922 -0.00101123
714.0 -0.00079786 -0.00122403 -0.000426172 0.00101095 -0.000185844 -0.000825102 0.000752096 2.87885e-06 -0.000653235 -0.000952924 -0.000994527 -0.00100674
715.0 -0.000794189 -0.00121875 -0.000424563 0.00100647 -0.000184813 -0.000821658 0.000748004 2.39996e-06 -0.000650605 -0.000948846 -0.000990165 -0.00100229
716.0 -0.000790505 -0.00121343 -0.000422924 0.00100197 -0.00018379 -0.000818177 0.000743848 1.90657e-06 -0.000647965 -0.00094476 -0.000985793 -0.000997826
717.0 -0.000786924 -0.00120808 -0.000421153 0.000997501 -0.000182885 -0.000814615 0.00073969 1.30411e-06 -0.000645398 -0.000940705 -0.000981434 -0.000993364
718.0 -0.000783476 -0.00120269 -0.000419217 0.000993085 -0.00018213 -0.000810955 0.000735489 5.11108e-07 -0.000642969 -0.000936727 -0.000977133 -0.000988937
719.0 -0.000780118 -0.00119731 -0.000417188 0.000988712 -0.000181465 -0.000807247 0.000731231 -3.87895e-07 -0.000640618 -0.000932805 -0.000972884 -0.000984558
720.0 -0.000776843 -0.00119199 -0.000415149 0.000984418 -0.000180847 -0.000803571 0.000726963 -1.35587e-06 -0.000638353 -0.000928961 -0.000968713 -0.000980254
721.0 -0.000773628 -0.00118678 -0.000413149 0.000980202 -0.000180239 -0.000799963 0.000722583 -2.38156e-06 -0.00063618 -0.00092522 -0.000964635 -0.000976035
722.0 -0.000770451 -0.00118162 -0.000411172 0.000976037 -0.00017964 -0.000796397 0.000718313 -3.25092e-06 -0.000633958 -0.000921477 -0.000960579 -0.000971851
723.0 -0.000767306 -0.00117649 -0.000409184 0.000971898 -0.000179061 -0.000792837 0.000714225 -3.87319e-06 -0.000631611 -0.000917673 -0.0009565 -0.000967659
724.0 -0.0007642 -0.00117138 -0.000407184 0.000967793 -0.000178508 -0.000789285 0.000710177 -4.49766e-06 -0.000629239 -0.000913841 -0.0009524 -0.000963452
725.0 -0.000761101 -0.00116628 -0.000405176 0.00096369 -0.000177963 -0.000785727 0.000706312 -4.99062e-06 -0.000626758 -0.000909948 -0.00094827 -0.000959228
726.0 -0.000757969 -0.00116126 -0.000403289 0.000959613 -0.00017734 -0.000782273 0.000702637 -5.37969e-06 -0.00062424 -0.000906069 -0.000944167 -0.000955044
727.0 -0.000754747 -0.0011563 -0.000401552 0.000955523 -0.000176597 -0.000778926 0.000698972 -5.80058e-06 -0.000621737 -0.000902204 -0.000940074 -0.000950876
728.0 -0.000751433 -0.00115131 -0.000399877 0.000951372 -0.000175778 -0.000775593 0.00069534 -6.15573e-06 -0.000619165 -0.000898271 -0.000935914 -0.000946651
729.0 -0.000748064 -0.0011463 -0.000398235 0.000947181 -0.000174914 -0.000772267 0.000691844 -6.37611e-06 -0.000616462 -0.000894234 -0.000931683 -0.000942375
730.0 -0.000744699 -0.00114136 -0.000396665 0.000943032 -0.000174017 -0.000769015 0.00068849 -6.52702e-06 -0.000613789 -0.000890273 -0.000927526 -0.000938174
731.0 -0.000741354 -0.00113654 -0.000395191 0.000938949 -0.000173081 -0.000765868 0.000685248 -6.66267e-06 -0.000611184 -0.000886411 -0.000923467 -0.000934064
732.0 -0.000738037 -0.00113189 -0.000393852 0.000934963 -0.000172092 -0.00076287 0.000682137 -6.7626e-06 -0.000608636 -0.000882664 -0.000919527 -0.000930077
733.0 -0.000734732 -0.0011273 -0.000392569 0.000931016 -0.000171082 -0.000759935 0.000678942 -6.9546e-06 -0.000606147 -0.000878973 -0.000915636 -0.000926131
734.0 -0.000731395 -0.00112275 -0.000391353 0.000927072 -0.000170021 -0.000757051 0.000675618 -7.25655e-06 -0.000603711 -0.000875331 -0.00091178 -0.00092222
735.0 -0.000728117 -0.00111821 -0.000390098 0.000923165 -0.000169009 -0.000754156 0.000672137 -7.71318e-06 -0.000601364 -0.000871745 -0.000907954 -0.000918325
736.0 -0.000724977 -0.00111377 -0.000388794 0.000919374 -0.000168092 -0.000751282 0.000668681 -8.26539e-06 -0.000599164 -0.000868278 -0.000904226 -0.000914512
737.0 -0.000721902 -0.00110937 -0.000387467 0.000915635 -0.000167217 -0.000748418 0.000665256 -8.82167e-06 -0.000597058 -0.00086489 -0.000900551 -0.000910736
738.0 -0.000718873 -0.00110489 -0.000386019 0.000911882 -0.000166427 -0.000745456 0.00066194 -9.25151e-06 -0.000594886 -0.000861445 -0.000896836 -0.000906922
739.0 -0.000715882 -0.00110034 -0.00038446 0.000908113 -0.000165711 -0.000742402 0.000658629 -9.68821e-06 -0.000592692 -0.000857968 -0.000893102 -0.00090309
740.0 -0.00071296 -0.00109568 -0.000382723 0.000904321 -0.000165118 -0.000739203 0.000655409 -1.01051e-05 -0.000590464 -0.000854448 -0.000889334 -0.000899228
741.0 -0.000710049 -0.00109095 -0.0003809 0.000900499 -0.000164574 -0.000735925 0.000652183 -1.05658e-05 -0.000588301 -0.000850982 -0.000885613 -0.000895407
742.0 -0.000707209 -0.00108613 -0.00037892 0.000896669 -0.000164144 -0.000732524 0.000648971 -1.11509e-05 -0.000586242 -0.00084757 -0.000881929 -0.000891605
743.0 -0.000704446 -0.00108132 -0.000376876 0.000892884 -0.000163785 -0.000729099 0.000645863 -1.17847e-05 -0.000584204 -0.000844155 -0.000878246 -0.000887807
744.0 -0.000701682 -0.00107658 -0.000374901 0.000889133 -0.00016339 -0.000725742 0.000642638 -1.25059e-05 -0.000582195 -0.000840756 -0.000874572 -0.000884017
745.0 -0.000698932 -0.00107188 -0.000372949 0.000885406 -0.000162991 -0.000722415 0.000639301 -1.33017e-05 -0.000580214 -0.000837373 -0.000870909 -0.000880235
746.0 -0.000696185 -0.00106727 -0.000371085 0.000881728 -0.00016255 -0.000719178 0.000635939 -1.40228e-05 -0.0005782 -0.000834008 -0.000867286 -0.000876503
747.0 -0.000693393 -0.00106276 -0.000369368 0.000878077 -0.000162013 -0.000716065 0.000632505 -1.47169e-05 -0.000576165 -0.000830658 -0.000863683 -0.000872804
748.0 -0.000690526 -0.00105836 -0.000367834 0.000874443 -0.000161346 -0.000713097 0.000629065 -1.52464e-05 -0.000574064 -0.000827306 -0.000860098 -0.00086914
749.0 -0.000687567 -0.001054 -0.000366435 0.000870785 -0.000160566 -0.000710218 0.000625466 -1.57774e-05 -0.000571916 -0.000823914 -0.00085648 -0.000865457
750.0 -0.00068456 -0.00104962 -0.000365055 0.000867088 -0.000159753 -0.000707335 0.000621715 -1.637e-05 -0.000569729 -0.000820463 -0.000852807 -0.000861724
751.0 -0.00068157 -0.00104524 -0.00036367 0.000863405 -0.00015895 -0.000704456 0.000617989 -1.69551e-05 -0.000567564 -0.000817038 -0.000849159 -0.000858012
752.0 -0.000678606 -0.00104089 -0.000362286 0.000859749 -0.00015816 -0.000701589 0.000614323 -1.7476e-05 -0.000565403 -0.000813654 -0.000845557 -0.000854345
753.0 -0.000675641 -0.0010366 -0.000360961 0.000856122 -0.00015734 -0.000698782 0.000610726 -1.79041e-05 -0.000563231 -0.000810307 -0.000842003 -0.00085073
754.0 -0.000672696 -0.00103235 -0.000359652 0.000852522 -0.000156522 -0.000696 0.00060722 -1.81812e-05 -0.000561002 -0.000806958 -0.000838469 -0.000847143
755.0 -0.00066983 -0.00102814 -0.00035831 0.000848985 -0.00015576 -0.000693225 0.000604016 -1.8266e-05 -0.000558702 -0.0008036 -0.000834951 -0.000843584
756.0 -0.000667005 -0.00102401 -0.000357004 0.000845507 -0.000155001 -0.000690506 0.000600824 -1.844e-05 -0.000556493 -0.000800316 -0.000831495 -0.000840075
757.0 -0.000664119 -0.00101994 -0.00035582 0.000842029 -0.000154149 -0.000687879 0.000597582 -1.87142e-05 -0.000554351 -0.000797094 -0.000828077 -0.000836596
758.0 -0.000661173 -0.00101594 -0.000354771 0.000838559 -0.000153201 -0.000685358 0.000594385 -1.89789e-05 -0.000552219 -0.000793908 -0.000824703 -0.000833166
759.0 -0.000658265 -0.00101203 -0.000353767 0.000835149 -0.000152249 -0.0006829 0.000591186 -1.92872e-05 -0.000550136 -0.00079079 -0.000821389 -0.000829797
760.0 -0.000655438 -0.00100818 -0.000352745 0.00083181 -0.000151346 -0.000680464 0.000588104 -1.96015e-05 -0.0005481 -0.000787729 -0.000818138 -0.000826488
761.0 -0.000652676 -0.0010043 -0.000351622 0.000828487 -0.000150527 -0.00067796 0.000585178 -1.98905e-05 -0.000546048 -0.000784652 -0.00081487 -0.000823163
762.0 -0.00064998 -0.00100036 -0.000350377 0.000825168 -0.000149801 -0.000675366 0.000582348 -2.01156e-05 -0.00054398 -0.000781549 -0.000811581 -0.000819813
763.0 -0.000647343 -0.000996378 -0.000349035 0.000821861 -0.000149154 -0.000672707 0.000579593 -2.02563e-05 -0.000541905 -0.000778435 -0.000808282 -0.000816451
764.0 -0.000644758 -0.000992331 -0.000347573 0.000818545 -0.000148592 -0.000669952 0.000576913 -2.03822e-05 -0.000539839 -0.000775311 -0.000804966 -0.000813065
765.0 -0.000642266 -0.000988217 -0.000345951 0.000815241 -0.000148158 -0.000667084 0.000574309 -2.05783e-05 -0.000537837 -0.0007722 -0.000801651 -0.000809667
766.0 -0.000639845 -0.000983989 -0.000344144 0.000811917 -0.00014785 -0.000664067 0.000571832 -2.07904e-05 -0.000535812 -0.000769031 -0.000798275 -0.000806205
767.0 -0.000637412 -0.000979561 -0.000342149 0.000808487 -0.000147631 -0.000660855 0.000569293 -2.10774e-05 -0.000533758 -0.000765764 -0.000794794 -0.000802629
768.0 -0.000634995 -0.000975002 -0.000340007 0.000804999 -0.000147494 -0.000657505 0.000566566 -2.15771e-05 -0.00053179 -0.000762488 -0.000791271 -0.000798996
769.0 -0.000632621 -0.000970635 -0.000338014 0.000801628 -0.000147303 -0.000654325 0.000563789 -2.21818e-05 -0.000529948 -0.000759354 -0.000787885 -0.000795495
770.0 -0.000630226 -0.000966517 -0.000336291 0.000798372 -0.000146968 -0.000651404 0.000561119 -2.28007e-05 -0.00052822 -0.000756385 -0.000784659 -0.000792164
771.0 -0.000627823 -0.00096257 -0.000334747 0.000795196 -0.000146538 -0.000648658 0.000558491 -2.34321e-05 -0.000526546 -0.000753508 -0.000781528 -0.000788937
772.0 -0.000625383 -0.000958665 -0.000333282 0.000792024 -0.00014605 -0.000645974 0.000555854 -2.40826e-05 -0.000524815 -0.000750586 -0.000778372 -0.000785703
773.0 -0.00062292 -0.000954788 -0.000331868 0.000788854 -0.000145526 -0.000643328 0.000553151 -2.47739e-05 -0.000523054 -0.000747644 -0.000775209 -0.000782471
774.0 -0.000620401 -0.000950989 -0.000330588 0.000785695 -0.000144906 -0.000640788 0.000550379 -2.54875e-05 -0.000521332 -0.000744763 -0.000772102 -0.000779292
775.0 -0.000617849 -0.000947266 -0.000329417 0.000782557 -0.000144216 -0.000638341 0.000547543 -2.62243e-05 -0.000519641 -0.000741931 -0.000769044 -0.000776159
776.0 -0.000615279 -0.000943583 -0.000328304 0.000779431 -0.000143488 -0.000635943 0.000544685 -2.69271e-05 -0.000517963 -0.000739126 -0.000766008 -0.000773048
777.0 -0.000612672 -0.000939978 -0.000327306 0.000776325 -0.000142683 -0.000633642 0.000541868 -2.73886e-05 -0.000516204 -0.000736332 -0.000763011 -0.000769989
778.0 -0.000610024 -0.000936371 -0.000326347 0.000773198 -0.000141839 -0.000631359 0.000538901 -2.78134e-05 -0.000514409 -0.000733524 -0.000760009 -0.000766933
779.0 -0.000607383 -0.00093268 -0.000325296 0.000770031 -0.000141043 -0.000628988 0.000535903 -2.82205e-05 -0.000512594 -0.000730688 -0.000756983 -0.000763846
780.0 -0.000604787 -0.000928952 -0.000324165 0.00076687 -0.000140311 -0.000626559 0.000533055 -2.85227e-05 -0.000510753 -0.000727851 -0.000753961 -0.000760759
781.0 -0.000602246 -0.000925242 -0.000322996 0.000763744 -0.000139625 -0.000624119 0.000530241 -2.87657e-05 -0.000508898 -0.00072503 -0.000750974 -0.000757711
782.0 -0.000599707 -0.0009216 -0.000321893 0.000760653 -0.000138907 -0.000621746 0.000527343 -2.89623e-05 -0.00050703 -0.000722242 -0.000748029 -0.000754712
783.0 -0.00059719 -0.000917966 -0.000320776 0.000757578 -0.000138207 -0.000619371 0.000524368 -2.90946e-05 -0.000505103 -0.000719424 -0.000745069 -0.00075171
784.0 -0.000594732 -0.000914428 -0.000319696 0.00075458 -0.000137518 -0.000617062 0.000521384 -2.92106e-05 -0.000503209 -0.000716661 -0.000742166 -0.000748768
785.0 -0.000592293 -0.000910964 -0.000318671 0.000751629 -0.000136811 -0.000614817 0.000518396 -2.9313e-05 -0.00050132 -0.000713937 -0.00073931 -0.000745876
786.0 -0.000589877 -0.000907548 -0.000317671 0.000748713 -0.000136103 -0.00061261 0.000515469 -2.94096e-05 -0.000499426 -0.000711213 -0.000736461 -0.000742996
787.0 -0.000587477 -0.000904201 -0.000316724 0.000745839 -0.000135376 -0.000610462 0.000512577 -2.94974e-05 -0.000497522 -0.000708498 -0.00073363 -0.000740139
788.0 -0.000585098 -0.000900842 -0.000315744 0.00074297 -0.000134677 -0.000608293 0.000509743 -2.95938e-05 -0.000495631 -0.000705779 -0.000730793 -0.000737272
789.0 -0.000582753 -0.000897458 -0.000314705 0.000740106 -0.000134024 -0.000606081 0.000506902 -2.98033e-05 -0.000493813 -0.000703094 -0.00072797 -0.00073441
790.0 -0.000580454 -0.000894023 -0.000313569 0.000737239 -0.000133442 -0.000603796 0.000504049 -3.01066e-05 -0.000492072 -0.000700432 -0.000725145 -0.000731527
791.0 -0.000578181 -0.000890538 -0.000312358 0.00073436 -0.000132912 -0.000601448 0.000501179 -3.04179e-05 -0.000490363 -0.00069777 -0.0007223 -0.000728613
792.0 -0.000575932 -0.000886964 -0.000311032 0.000731448 -0.00013245 -0.000598998 0.000498382 -3.0679e-05 -0.000488609 -0.000695026 -0.000719367 -0.000725606
793.0 -0.000573727 -0.000883334 -0.000309607 0.000728531 -0.00013206 -0.00059647 0.000495669 -3.09953e-05 -0.000486872 -0.000692256 -0.000716389 -0.000722544
794.0 -0.00057156 -0.000879688 -0.000308128 0.000725624 -0.000131716 -0.000593908 0.000493083 -3.1317e-05 -0.000485127 -0.000689472 -0.000713401 -0.000719474
795.0 -0.000569403 -0.000876061 -0.000306658 0.000722732 -0.000131373 -0.000591359 0.000490594 -3.16453e-05 -0.000483395 -0.000686711 -0.000710436 -0.000716431
796.0 -0.000567231 -0.000872405 -0.000305174 0.000719818 -0.000131029 -0.00058879 0.000488098 -3.20624e-05 -0.00048172 -0.000683973 -0.000707481 -0.000713393
797.0 -0.000565046 -0.000868597 -0.000303552 0.000716822 -0.000130747 -0.000586075 0.000485613 -3.25424e-05 -0.000480043 -0.000681176 -0.000704458 -0.000710287
798.0 -0.000562849 -0.000864789 -0.00030194 0.000713819 -0.000130455 -0.000583364 0.000483208 -3.30105e-05 -0.000478311 -0.000678318 -0.000701387 -0.000707145
799.0 -0.000560679 -0.000861066 -0.000300387 0.000710872 -0.000130146 -0.000580726 0.000480847 -3.35198e-05 -0.000476655 -0.00067554 -0.000698388 -0.000704069
800.0 -0.000558536 -0.000857433 -0.000298897 0.000707985 -0.00012982 -0.000578165 0.000478544 -3.40167e-05 -0.000475044 -0.000672831 -0.000695464 -0.000701066
801.0 -0.000556391 -0.000853897 -0.000297506 0.000705144 -0.000129443 -0.000575702 0.000476182 -3.45597e-05 -0.000473484 -0.000670197 -0.000692617 -0.000698139
802.0 -0.00055426 -0.000850459 -0.000296199 0.000702359 -0.000129031 -0.000573329 0.000473889 -3.50758e-05 -0.000471949 -0.000667624 -0.000689837 -0.000695282
803.0 -0.000552072 -0.000847145 -0.000295073 0.000699608 -0.000128499 -0.000571109 0.000471662 -3.55178e-05 -0.000470412 -0.000665118 -0.000687141 -0.000692521
804.0 -0.00054989 -0.000843884 -0.000293994 0.000696887 -0.000127948 -0.000568939 0.000469481 -3.59736e-05 -0.000468887 -0.000662628 -0.000684462 -0.000689777
805.0 -0.000547777 -0.000840629 -0.000292853 0.000694203 -0.000127462 -0.000566741 0.00046737 -3.6486e-05 -0.000467401 -0.000660151 -0.000681789 -0.00068703
806.0 -0.000545694 -0.000837432 -0.000291738 0.000691563 -0.000126978 -0.000564585 0.00046518 -3.71015e-05 -0.000465986 -0.000657741 -0.000679176 -0.000684336
807.0 -0.000543631 -0.000834383 -0.000290752 0.000689007 -0.00012644 -0.000562567 0.00046302 -3.76931e-05 -0.00046462 -0.000655437 -0.000676684 -0.000681771
808.0 -0.00054161 -0.000831422 -0.000289813 0.000686516 -0.000125899 -0.000560618 0.000460968 -3.81949e-05 -0.000463242 -0.000653181 -0.00067426 -0.000679284
809.0 -0.00053962 -0.000828492 -0.000288872 0.000684056 -0.000125374 -0.000558682 0.000459074 -3.85085e-05 -0.000461806 -0.000650934 -0.000671876 -0.000676849
810.0 -0.000537596 -0.000825549 -0.000287953 0.000681572 -0.000124821 -0.000556751 0.00045726 -3.8609e-05 -0.000460283 -0.000648665 -0.000669494 -0.000674427
811.0 -0.0005355 -0.000822579 -0.000287079 0.000679039 -0.00012421 -0.000554829 0.000455322 -3.87163e-05 -0.00045872 -0.000646369 -0.000667088 -0.000671987
812.0 -0.000533337 -0.000819559 -0.000286222 0.000676448 -0.000123558 -0.00055289 0.000453332 -3.88099e-05 -0.000457112 -0.00064404 -0.000664656 -0.00066953
813.0 -0.000531163 -0.000816547 -0.000285385 0.000673855 -0.000122889 -0.000550966 0.000451345 -3.88933e-05 -0.000455513 -0.000641734 -0.000662247 -0.000667094
814.0 -0.000528981 -0.000813529 -0.000284548 0.000671255 -0.000122217 -0.000549038 0.000449369 -3.89196e-05 -0.000453889 -0.000639421 -0.000659837 -0.00066466
815.0 -0.000526805 -0.00081049 -0.000283685 0.000668647 -0.00012156 -0.000547087 0.000447359 -3.88719e-05 -0.000452217 -0.000637071 -0.000657396 -0.000662198
816.0 -0.000524668 -0.000807419 -0.00028275 0.000666043 -0.000120959 -0.000545084 0.000445263 -3.87913e-05 -0.000450516 -0.000634682 -0.000654916 -0.000659697
817.0 -0.000522621 -0.000804398 -0.000281777 0.000663509 -0.000120422 -0.000543088 0.000443113 -3.87291e-05 -0.000448851 -0.000632322 -0.000652463 -0.000657218
818.0 -0.000520612 -0.000801429 -0.000280817 0.000661021 -0.000119898 -0.000541123 0.000440872 -3.87593e-05 -0.000447283 -0.000630042 -0.000650071 -0.000654793
819.0 -0.00051865 -0.000798509 -0.000279859 0.00065858 -0.000119395 -0.000539184 0.00043853 -3.88906e-05 -0.000445806 -0.000627829 -0.000647725 -0.000652402
820.0 -0.000516684 -0.000795584 -0.0002789 0.000656134 -0.000118892 -0.000537242 0.00043609 -3.90497e-05 -0.000444318 -0.000625586 -0.00064535 -0.000649981
821.0 -0.000514666 -0.000792564 -0.000277898 0.000653615 -0.000118384 -0.000535231 0.000433465 -3.92447e-05 -0.000442771 -0.000623253 -0.000642877 -0.000647461
822.0 -0.000512643 -0.000789472 -0.00027683 0.000651058 -0.000117907 -0.000533151 0.000430661 -3.95517e-05 -0.000441233 -0.000620872 -0.000640337 -0.000644863
823.0 -0.000510616 -0.000786312 -0.000275696 0.000648464 -0.00011746 -0.000531004 0.000427847 -3.97967e-05 -0.000439618 -0.000618418 -0.000637732 -0.000642205
824.0 -0.000508547 -0.00078316 -0.000274613 0.000645853 -0.000116967 -0.000528886 0.000424996 -3.99866e-05 -0.000437994 -0.000615955 -0.00063511 -0.000639531
825.0 -0.000506451 -0.000779959 -0.000273508 0.000643205 -0.000116471 -0.000526733 0.000422154 -4.01476e-05 -0.000436333 -0.000613429 -0.000632418 -0.000636788
826.0 -0.000504367 -0.000776725 -0.000272358 0.000640546 -0.000116004 -0.000524542 0.000419343 -4.03715e-05 -0.000434648 -0.000610843 -0.000629666 -0.000633988
827.0 -0.000502314 -0.000773496 -0.000271182 0.000637905 -0.000115566 -0.000522339 0.000416564 -4.06953e-05 -0.00043299 -0.000608254 -0.000626906 -0.000631183
828.0 -0.000500319 -0.000770313 -0.000269994 0.000635316 -0.000115163 -0.000520154 0.000413757 -4.11586e-05 -0.000431465 -0.000605769 -0.000624225 -0.000628442
829.0 -0.000498338 -0.000767172 -0.000268833 0.000632755 -0.000114752 -0.000518003 0.00041094 -4.17157e-05 -0.000430045 -0.000603376 -0.000621621 -0.000625766
830.0 -0.000496378 -0.000763954 -0.000267576 0.000630166 -0.000114401 -0.000515765 0.000408142 -4.23777e-05 -0.000428722 -0.000601036 -0.000619048 -0.000623106
831.0 -0.000494434 -0.000760783 -0.000266349 0.000627608 -0.000114042 -0.000513566 0.000405434 -4.30692e-05 -0.000427467 -0.000598767 -0.00061654 -0.000620507
832.0 -0.000492503 -0.00075774 -0.000265236 0.000625121 -0.000113633 -0.000511488 0.000402905 -4.36953e-05 -0.000426232 -0.00059657 -0.000614117 -0.000618001
833.0 -0.000490663 -0.000754778 -0.000264115 0.00062272 -0.000113274 -0.000509446 0.00040053 -4.43015e-05 -0.000425035 -0.000594421 -0.000611748 -0.000615548
834.0 -0.0004889 -0.000751889 -0.000262989 0.000620394 -0.000112956 -0.000507439 0.00039823 -4.49406e-05 -0.000423897 -0.000592336 -0.000609443 -0.000613151
835.0 -0.000487181 -0.000749077 -0.000261896 0.000618129 -0.000112643 -0.000505487 0.000396079 -4.55018e-05 -0.000422754 -0.000590291 -0.000607193 -0.000610815
836.0 -0.000485499 -0.000746342 -0.000260844 0.00061592 -0.000112327 -0.000503593 0.000394092 -4.59571e-05 -0.000421587 -0.000588275 -0.000604999 -0.000608544
837.0 -0.000483851 -0.000743654 -0.000259803 0.000613753 -0.000112024 -0.000501729 0.000392267 -4.63648e-05 -0.000420414 -0.000586278 -0.000602835 -0.000606311
838.0 -0.000482217 -0.00074098 -0.000258763 0.000611598 -0.000111727 -0.000499871 0.000390561 -4.67022e-05 -0.000419198 -0.000584264 -0.000600674 -0.00060409
839.0 -0.000480585 -0.00073836 -0.000257775 0.000609473 -0.000111405 -0.000498067 0.00038897 -4.69532e-05 -0.000417932 -0.000582254 -0.000598542 -0.00060191
840.0 -0.000478967 -0.00073579 -0.000256823 0.000607378 -0.000111072 -0.000496306 0.00038748 -4.71434e-05 -0.000416649 -0.000580265 -0.00059645 -0.000599778
841.0 -0.000477336 -0.000733328 -0.000255992 0.000605332 -0.000110672 -0.00049466 0.000386055 -4.7283e-05 -0.000415383 -0.000578346 -0.000594441 -0.000597737
842.0 -0.00047574 -0.000730933 -0.000255192 0.000603336 -0.000110274 -0.000493063 0.000384757 -4.7363e-05 -0.000414107 -0.000576464 -0.000592484 -0.000595753
843.0 -0.000474186 -0.000728607 -0.000254421 0.000601397 -0.000109882 -0.000491514 0.000383525 -4.74831e-05 -0.000412867 -0.000574623 -0.000590571 -0.000593814
