0.0      0      0      0      0      0      0      0      0      0      0      0      0
1.0 -0.00295706091857072 -0.00539603211035875 -0.00243897604372403 0.00417655136640074 -0.000259043407810546 -0.0039175065030094 0.00774106982105938 0.000860558777871194 -0.00251013938913255 -0.00349423816160331 -0.00343700957640569 -0.00344507834598463
2.0 -0.00950670829591351 -0.0167645392682775 -0.00725778495081166 0.0131356262799032 -0.00112445732017646 -0.0120111633584485 0.0243261176794629 0.00218966475693096 -0.00807737720980849 -0.0109604758114842 -0.0107290765930053 -0.0107186746391996
3.0 -0.0192862664856536 -0.0302753182582055 -0.0109890280803623 0.024780793657817 -0.00414859755427139 -0.0206321980719077 0.0490729235094653 0.00426647058134732 -0.0142813162422781 -0.0192685546103857 -0.0189472001191557 -0.018916857656337
4.0 -0.0257909337151024 -0.0370077587634524 -0.0112168128514592 0.0313993711609405 -0.00728702502741998 -0.0241122986274859 0.0665324582644239 0.00625376021240872 -0.0167762708949327 -0.0228168944734688 -0.0225880928406804 -0.0225746071984924
5.0 -0.0339751144932909 -0.054390518785778 -0.0204154465328097 0.0441828294693661 -0.00677982060576405 -0.0374030135188074 0.0546933665033207 -0.0138742344094067 -0.0349605648594288 -0.0386469206086969 -0.0355594075924097 -0.0343170166321564
6.0 -0.0282665621526963 -0.0448116235294067 -0.0165450831222988 0.0365391237056109 -0.00586074718574065 -0.0306783692125278 0.0410919020290872 -0.0157863171750162 -0.0310722403937352 -0.0330362773695592 -0.0298455699898313 -0.0285449514114718
7.0 -0.0138145796670843 -0.0138854205265033 -7.08277945070286e-05 0.0138500038562265 -0.00687187260722869 -0.00697813233906714 0.0304666949031359 -0.00172015820385001 -0.00854443931959849 -0.00938683630834803 -0.00856635176779164 -0.00820109842688192
8.0 -0.00282209668727152 0.0043409840802656 0.0071630826415014 -0.00075941992740499 -0.0049925855245971 0.00575200489082742 0.0194571111603372 0.00721184755016018 0.00482077120110657 0.00411529438542329 0.0035713735023922 0.00333112786837266
9.0 0.000454777985858315 0.0104324519026008 0.00997769914115135 -0.0054436148375889 -0.00476144631661644 0.010205060865309 0.0152180662951835 0.00805017109395982 0.00785023697793428 0.0079460461448557 0.00732435885995218 0.00710630871481696
10.0 0.00136514286408572 0.0109018030090677 0.00953669739034908 -0.00613348501151741 -0.00408576749549413 0.0102192475063499 0.0122793377883989 0.00656417782631403 0.00701042654471417 0.00769026365295212 0.00743788986371407 0.00741089447312866
11.0 0.000500230995174159 0.00873384494681885 0.00823363361099163 -0.00461704394465646 -0.00386669409609522 0.00848374031831505 0.00950173649995828 0.00301485086756332 0.00380866573245733 0.00528362399032296 0.00574678159829744 0.00607094769166587
12.0 -0.00233706521786226 0.00456869225948152 0.00690576371655258 -0.0011158170812816 -0.00462141075451967 0.00573722900830547 0.00759013848673138 -0.00272408253712468 -0.00113124350721038 0.00152843221839855 0.00296779502880487 0.00377855460662559
13.0 -0.0053841415734897 0.000191594725834797 0.00557573951130912 0.0025962715908737 -0.00547993620511599 0.00288366812901657 0.0111586217073356 -0.00577870010198307 -0.00517374388394528 -0.00196081437740677 0.000213047697892612 0.0013978189676193
14.0 -0.0086761599827636 -0.00408306022762781 0.00459308200094201 0.00637958247593134 -0.00663460662915153 0.000255011406840451 0.0189025436383786 -0.00749868225521838 -0.00859986868342281 -0.00503977806425308 -0.00226434000622775 -0.000755789958973179
15.0 -0.0115512911182902 -0.0051809950122414 0.00637028696607621 0.00836611913767168 -0.00896076709236466 0.000594646729904722 0.0295133183568282 -0.00749469772153945 -0.00966857130283514 -0.00552031474555686 -0.00239492015695119 -0.000628632380793063
16.0 -0.0140083158213715 -0.00290379415368374 0.0111045213291138 0.00845604048607783 -0.0125564072753356 0.0041003613067929 0.0420318865795118 -0.00633345101902691 -0.00835385612681269 -0.00322014543653128 1.14544088235507e-06 0.00195930895735057
17.0 -0.015662575726387 -0.000529482697714643 0.0151331219659883 0.00809603145048369 -0.0153978430289232 0.00730183301571157 0.0529130873762052 -0.00654473778188015 -0.0076900889006781 -0.00133835677851598 0.00213155027051457 0.00433984393776217
18.0 -0.0178380500510593 0.00161328396172152 0.0194513828734483 0.00811239632686848 -0.0186447377271689 0.0105323330286012 0.0623647133613691 -0.00930100725697209 -0.008464201268104 -0.000135806002328366 0.00397657158480507 0.00664659796279387
19.0 -0.0205916935277805 0.000494219874315381 0.0210859599043986 0.0100487572499147 -0.0208388619230839 0.0107901003633649 0.0701489104106762 -0.0155712091566001 -0.0126698587833323 -0.00201617574132344 0.00334206858847921 0.00670406528129519
20.0 -0.0232831626096305 -0.00250691111802174 0.0207762317638677 0.0128950206921629 -0.0220297395712151 0.00913467784484929 0.0802660652816848 -0.0220547982801102 -0.0180544603227789 -0.00544949991264674 0.00126538874680822 0.00531972289325495
21.0 -0.0262475195737791 -0.00685914084089177 0.01938836857692 0.0165533218820597 -0.0228179658951439 0.00626461318454189 0.0931319123160794 -0.0261265923306724 -0.0233506103218959 -0.00964904464616591 -0.00172366522974927 0.00291208943753824
22.0 -0.0287254908339877 -0.00897932002130811 0.0197461655843226 0.0188524011417427 -0.0242358151824449 0.0053834418373954 0.109985639772216 -0.0282253494907876 -0.0273678627691468 -0.0126893431245756 -0.00368779916681239 0.00148421690793899
23.0 -0.0287683863955764 -0.00608825997789635 0.0226800994664084 0.0174283088504849 -0.0257242362247586 0.00829594168418919 0.128128658861839 -0.0264491772642452 -0.0274770008741065 -0.0121663805380182 -0.00267904325981349 0.00277390666616044
24.0 -0.0274579821196983 -0.000162833140584115 0.0272951156966831 0.0138103905458752 -0.0273765454557786 0.0135661428689955 0.139427042564816 -0.0271617436174144 -0.0274748655981527 -0.010463117845737 -0.000266891988629195 0.00561015599572492
25.0 -0.0219377491229791 0.00954241349425863 0.0314801454832291 0.00619766872314276 -0.0267089455257803 0.0205112803077731 0.13741443885711 -0.0295031212132197 -0.0268248684229072 -0.00758167539506348 0.00344001234494872 0.00976314345179035
26.0 -0.0136695265842016 0.0242152921825118 0.0378847759824642 -0.00527287505340402 -0.0257771576462592 0.0310500345041295 0.122946237948425 -0.027746661566959 -0.0219890561648716 -0.00104841964615201 0.0101294190468916 0.0165841680847513
27.0 -0.00107383929327334 0.0407669478715564 0.0418407166198644 -0.0198465503015793 -0.0214573054919241 0.0413038082030941 0.107823462793981 -0.0164112767919461 -0.0119944434511675 0.00797274598371081 0.0180609666341394 0.0239891112643492
28.0 0.0123803072016595 0.0598322190275623 0.047451826989543 -0.0361062853214684 -0.0175357740693188 0.0536420348909399 0.106573379534008 0.00452510693221115 0.00361221795110854 0.020619731548102 0.0283717835112662 0.0332117142796279
29.0 0.0263231181321314 0.078776982088086 0.0524538688010139 -0.0525500858020211 -0.0130653826320161 0.065615431561679 0.0951343680961412 0.0197942432201765 0.0176816591957882 0.0329978298230735 0.038866820209889 0.0428173761796322
30.0 0.0390594898711719 0.097895559419163 0.0588360720422586 -0.0684775430195923 -0.00988828999044557 0.0783658188798479 0.073207174739229 0.0310318882735853 0.0316838811151221 0.0462837746812091 0.0503347978299744 0.0534422057236929
31.0 0.0489608405942439 0.1170905172218 0.068129774950341 -0.0830257126269734 -0.00958446661428524 0.0926102204863065 0.0534356448074969 0.0417042609226018 0.0453862912734889 0.0597941483341288 0.0620526124936301 0.0644276168171735
32.0 0.0553812907769647 0.132630046910969 0.0772486611931234 -0.0940057832414192 -0.0109336606581703 0.104939368094084 0.0439331063982977 0.0523810135845464 0.056534685908577 0.070362514853533 0.070999091234335 0.0727607117101709
33.0 0.0607305061798177 0.14597721491057 0.0852467568932995 -0.103354113515175 -0.0122581127182907 0.115611993130866 0.0247249096916401 0.0570599229619976 0.0641201124596135 0.0785993968082657 0.0784431783054761 0.0799616583332777
34.0 0.0647441702041335 0.157850768432641 0.0931065259841751 -0.111297648068312 -0.0141812684223859 0.125478893526708 -0.000187845630071341 0.0565387168551564 0.0687922781918257 0.0849894951162618 0.0847027199929702 0.0862946195029342
35.0 0.068504192469197 0.169487764105825 0.100983388886703 -0.118995900491356 -0.0162397175944341 0.135235703302501 -0.0275317336848598 0.0550775481487606 0.0735417518911341 0.0915704694077062 0.0911995496440408 0.0928682555387513
36.0 0.0725510989074633 0.178443096847515 0.105891903859221 -0.125497057827531 -0.0166704154170314 0.14216732303723 -0.0664128520879967 0.0479269840975916 0.07444277974967 0.0950371440082333 0.0952660786822654 0.0972712634789565
37.0 0.0748757590170281 0.187493366090796 0.112617219004833 -0.131184469156897 -0.018870857954491 0.150055443861132 -0.102631170562278 0.0382286024878643 0.0742106729564457 0.0984834042818344 0.0996832430465249 0.10226814453383
38.0 0.0782444780710728 0.195570206336039 0.117325431445876 -0.136907100044735 -0.0195406396010513 0.156448139384822 -0.124959697308837 0.0381224894403045 0.0779003893333696 0.103048879909068 0.104208525835244 0.106861402224371
39.0 0.0838406631814782 0.196569605040469 0.112728983132064 -0.140204912407343 -0.0144442584000903 0.154649459078559 -0.151504786064656 0.0357690630038092 0.0773123883841129 0.102172193340031 0.103866209214885 0.106619580654552
40.0 0.0899119085706239 0.195956511961074 0.106044818715533 -0.142934168910441 -0.00806648633442595 0.151001065653232 -0.187864813104431 0.0264689385360702 0.0733273049004219 0.0990489083252489 0.101900297312735 0.104970125876043
41.0 0.0946923714014159 0.197568076702223 0.102875622074098 -0.146130057203711 -0.00409164337097826 0.150221812876047 -0.211715080418914 0.0223634056672872 0.072992907093195 0.0993980010815649 0.102803098349323 0.106069513500883
42.0 0.098382573726431 0.205584893350469 0.107201791584794 -0.151983890240776 -0.00440959395384842 0.156393081074162 -0.223722612629258 0.0255396743049037 0.0794028448292761 0.106724423926734 0.109682125500991 0.112857608020348
43.0 0.100693757671573 0.215652227116193 0.114958197606638 -0.158173073065244 -0.00713230929685535 0.165305077794385 -0.23312827852782 0.0311729785530806 0.0883678907958377 0.116876409140365 0.11891044689323 0.121859595079376
44.0 0.102989811366089 0.226759168827134 0.123769217517113 -0.164874531626744 -0.010389943140259 0.175264123896155 -0.240094067912552 0.0381529840980557 0.0981077201206087 0.127717376441182 0.128729092960012 0.131383656731589
45.0 0.107452228435308 0.239658929173986 0.132207113888246 -0.173555842781425 -0.0123774692746172 0.185932985867404 -0.256079708522698 0.0390260006592414 0.105180523033091 0.137186232104773 0.137880769552022 0.140512255686006
46.0 0.111653408988057 0.250011054201955 0.138358343099541 -0.180832367491941 -0.0133524807228987 0.194184680290841 -0.272023796856845 0.0378592067685192 0.108780405777665 0.143272873209278 0.144303874249418 0.147174810153029
47.0 0.114413962137413 0.256749881823053 0.142336278961635 -0.185581749344045 -0.0139610684093303 0.199542828343746 -0.27997621853539 0.0382374118961899 0.11039590358713 0.146685301320753 0.148286889530598 0.151500888409032
48.0 0.115969511191808 0.261723658762098 0.145754332527871 -0.188846738699538 -0.0148922672953041 0.203738865888753 -0.280454513393666 0.0405154385986845 0.110991282914045 0.148532287159557 0.150796364432248 0.154421322834616
49.0 0.116780992058715 0.263828108974598 0.14704721213323 -0.190304872250828 -0.0151328421506195 0.205437593754576 -0.279865724460746 0.0417901690178587 0.109000881496061 0.147662195705598 0.150947082821858 0.15511693382067
50.0 0.117799902473158 0.263668427406204 0.145868573951546 -0.190734330570491 -0.0140343433875188 0.204768708886948 -0.278668885537805 0.0454468941409151 0.108140690739447 0.146307440217457 0.149977140629507 0.154276610614118
51.0 0.117271573961441 0.264633270103158 0.147361721376754 -0.1909525073001 -0.0150449806063431 0.205997360330004 -0.27114892545753 0.0461015687090735 0.105699831785778 0.144373730128141 0.148644245575962 0.153285549015512
52.0 0.115850648616296 0.266878129841079 0.151027494215942 -0.191364675721897 -0.017588423390031 0.208952984915401 -0.269588093811742 0.0397915440759524 0.101486346616047 0.14305413447445 0.148621807518447 0.154063047978554
53.0 0.112614577789031 0.27038892773738 0.157774356636281 -0.191502142848544 -0.0225797441693875 0.214081973786909 -0.286134120464527 0.0219299693711563 0.0932643787995677 0.141294757232321 0.149566087656145 0.156520045093399
54.0 0.105923041022175 0.273799388617767 0.167876399557941 -0.18986163397552 -0.0309766287497522 0.220838307394497 -0.309430632751507 -0.00935782214508103 0.0793041076915871 0.137055738532696 0.14937876039609 0.158549588045923
55.0 0.0999714908547261 0.273645878885105 0.17367475441645 -0.186808973432915 -0.0368515329947647 0.223660529423682 -0.350083241962863 -0.0573784894834809 0.056883695828149 0.127743059423927 0.146116434879549 0.158321746931096
56.0 0.0986937379446214 0.269377204350687 0.17068365502396 -0.184035619701733 -0.0359949076839542 0.220030539224176 -0.40456066204592 -0.10164634572607 0.0359861668751607 0.118229839663715 0.142563636334756 0.157512566792611
57.0 0.100594853619592 0.273314936463982 0.172720179946089 -0.186954728921577 -0.0360624914243204 0.223017614595308 -0.443960487166915 -0.134849916849428 0.024186080501676 0.116460901589855 0.145126120187881 0.162038662889002
58.0 0.105219790043902 0.286802379002345 0.181582638947019 -0.196010999003376 -0.0381811419618189 0.234192295407955 -0.466248589230076 -0.158706926537911 0.021514905113075 0.122689864783076 0.153910492013405 0.17197656178178
59.0 0.110206711740821 0.301004782191296 0.190798096184914 -0.205605702939945 -0.0402954497558006 0.245901329242587 -0.477981254990527 -0.174692150548528 0.024170803882886 0.13177906211059 0.164022658316565 0.182540409475984
60.0 0.114770097416519 0.312707757518558 0.197937188156692 -0.213739147399414 -0.0415834690662715 0.255322658833769 -0.485485135498533 -0.185736539435125 0.0273106838662333 0.13997104072844 0.172886340796003 0.19168465459246
61.0 0.119544355181123 0.318569499058552 0.199024900916944 -0.219057282938975 -0.0397401365474985 0.258797295739754 -0.4868770901958 -0.191499407293271 0.0308504216078346 0.146378002463952 0.179469282217692 0.19821164649804
62.0 0.121322902589528 0.311724630794053 0.190402088320514 -0.216523949869759 -0.0345395712062325 0.251063166254228 -0.482134278986942 -0.196496703763961 0.0267503796402106 0.142520226949626 0.176570113523542 0.195618458219412
63.0 0.123318065938371 0.296286434751076 0.17296855420272 -0.209802102049114 -0.0248252329818484 0.234627152366448 -0.467141661363929 -0.195354216566241 0.0224726316190881 0.13479389393824 0.168873432355407 0.187572755608173
64.0 0.127415493903053 0.279010905661205 0.151595507198119 -0.2032131234386 -0.0120898650530654 0.215302787712213 -0.449996054207928 -0.191643836025455 0.0211679792048994 0.128629075508766 0.161620548636693 0.179252774321439
65.0 0.13210998754442 0.260297034256403 0.128187095845088 -0.196203471598274 0.00196147022404371 0.194241606895523 -0.42962614497016 -0.180499503771339 0.0244371752564232 0.124831428560045 0.155439886356498 0.171302501478849
66.0 0.135145364753505 0.234497818307623 0.0993523818094357 -0.184821571297572 0.0178965525394802 0.166924912716649 -0.406643424155594 -0.1657464627231 0.0287425041579277 0.120196166158367 0.14767053636826 0.161400427162291
67.0 0.136516830086499 0.207140750484097 0.0706237379048958 -0.171828779869224 0.0329465532690333 0.138882220528737 -0.38202206909262 -0.15257614311655 0.0327534035597279 0.115831769101471 0.14031716710784 0.152020457217959
68.0 0.135257349940134 0.181724975164344 0.04646796795004 -0.158491399786778 0.0443945733920465 0.114096580672308 -0.356149086814231 -0.142981370224302 0.0369490649749014 0.112710145505326 0.134380742324134 0.14410090542879
69.0 0.13259540805821 0.1583197331123 0.0257246519015569 -0.145457450118314 0.0534351986631172 0.0920222219944406 -0.340242457688547 -0.150092188005085 0.0321855967556743 0.105053477291888 0.126691033969985 0.135802685162081
70.0 0.130153230678866 0.148076940501012 0.0179240187914575 -0.139114780975986 0.0561144383745981 0.0830005215122425 -0.322687931149184 -0.152473426978251 0.0361370150135597 0.106898922169822 0.12746829763622 0.135633990546395
71.0 0.129769330616836 0.143311883017477 0.0135426677925961 -0.136540449999944 0.0581132233127597 0.0784272217529172 -0.309357270377078 -0.154028750494846 0.0422269152077365 0.111976510963413 0.131602002702638 0.138944956264115
72.0 0.130476582473422 0.143070313363521 0.0125937902946153 -0.136773124591167 0.0589412434004409 0.0778319271698936 -0.297865328760264 -0.152078393278504 0.0504554516606806 0.12015662715433 0.138939584214087 0.145637738011964
73.0 0.129945983255526 0.145310785369385 0.015364590098884 -0.13762846045829 0.0572906907521061 0.0803375992991136 -0.285171534267471 -0.1492097378952 0.0585269132583565 0.130132388486193 0.148772234268087 0.155226746256688
74.0 0.128939699852073 0.144060060404289 0.0151202514055507 -0.136499676731744 0.0569096241851682 0.0795899648199252 -0.274347091007232 -0.14953300400481 0.062264401650716 0.136748785127353 0.156345022321782 0.16296910365702
75.0 0.127024301146528 0.144158525397448 0.0171341195421579 -0.1355910659654 0.0549449665228947 0.0806461513189849 -0.265704293242583 -0.152151591924453 0.0622135040410901 0.140357759383881 0.161648177546589 0.168896178388936
76.0 0.125425442117992 0.148382851158898 0.0229573066168061 -0.136903967842791 0.0512340765498588 0.0856700635573559 -0.255550504482187 -0.149832079315351 0.0654593017107014 0.14628451596132 0.168446624134541 0.176035230475849
77.0 0.124317530614869 0.152236330952075 0.0279186505699033 -0.138277081335125 0.0481994930717613 0.0900774828687514 -0.245373323936855 -0.143408077559337 0.0700120665130951 0.151194424858849 0.173301168476641 0.180773519354469
78.0 0.124264872255059 0.157669853510016 0.0334047585957108 -0.140967440387492 0.0454300598801022 0.0955371321721286 -0.233952194598875 -0.135036509542289 0.0756165055225684 0.156666232148276 0.178584359850419 0.18586488901231
79.0 0.125123726909252 0.163844498347993 0.038720656812337 -0.14448439512547 0.0432016336575574 0.101282730662051 -0.224749918350665 -0.129878169147035 0.0807804668542176 0.163447670467816 0.185632107496458 0.192833293355478
80.0 0.125048654403033 0.170171666298918 0.0451227102886779 -0.14761030578216 0.0399630470814534 0.107647145802932 -0.216378427580645 -0.12637159292602 0.0860554107239736 0.171203164867642 0.193681902368382 0.20081992288171
81.0 0.124129865404823 0.177149397379611 0.0530192796667475 -0.150639706261122 0.0355553314920152 0.115084122571169 -0.210178901485644 -0.126058840563286 0.0885094177141787 0.177311672307202 0.200765291114626 0.208191021480208
82.0 0.122796618694933 0.184314058474485 0.0615172128510374 -0.1535553771277 0.0306396742859438 0.122915573008644 -0.204953414205092 -0.125052626393194 0.0907351862430314 0.182768318534651 0.207220165530827 0.214981295499359
83.0 0.122632323071089 0.188396934252577 0.0657643487991568 -0.155514891100811 0.0284340451730078 0.127080682050167 -0.201077486753375 -0.123700087906191 0.0925642757535853 0.186673487275374 0.211949752435544 0.219891311363621
84.0 0.123435646921754 0.18859201398027 0.065155892346893 -0.156014208153078 0.029140028463671 0.126874143843511 -0.201125284750218 -0.127100767201682 0.0889139819825996 0.185877048153801 0.213089107126579 0.221658235385581
85.0 0.123122383167034 0.188153392182138 0.0650309587079621 -0.155638082118027 0.0290456930173121 0.126592176569577 -0.202421583892193 -0.132395797917918 0.0843408469608843 0.184814935998044 0.214073998158784 0.223330098325871
86.0 0.119086356886567 0.188166302125092 0.0690803074949668 -0.153626429606557 0.0250029177665043 0.128623596505104 -0.201770170779354 -0.139037711166259 0.0778342809522188 0.182838288322303 0.214289910204423 0.224480929839549
87.0 0.110295446070766 0.18616764309482 0.075872286477269 -0.148231353518488 0.0172115198969265 0.131020163471896 -0.196706607501837 -0.145882962624626 0.064135964824781 0.173621410792066 0.207973218285695 0.220050175919741
88.0 0.102582737722104 0.186815064526207 0.0842322758164704 -0.144698972580789 0.00917518410461643 0.135523651157686 -0.190803932593828 -0.147897504588851 0.0547009071331752 0.167213744788094 0.203396766333466 0.216989004138057
89.0 0.0974828009637035 0.186623381746245 0.0891404089757012 -0.142053225180026 0.00417117187624776 0.137881861312943 -0.186572106713931 -0.146996255249147 0.0493016207647211 0.162587062439402 0.199606062105031 0.214028350779082
90.0 0.0941579143088911 0.187039492634774 0.0928813928399024 -0.140598505509346 0.000638253170456583 0.139960497988235 -0.182050535772482 -0.143155338861085 0.0486079779183105 0.161384722401773 0.198263501279047 0.212771043964011
91.0 0.0924366345486141 0.1866452764078 0.0942084978504559 -0.139541023383612 -0.000885935544935949 0.140427012611363 -0.177380772606369 -0.136741400240756 0.0514768898735361 0.162214538147782 0.197648517769627 0.211332908800604
92.0 0.0932298608035635 0.184639351951384 0.0914092229337642 -0.138934520037211 0.000910316930235781 0.138024327781952 -0.171392138323381 -0.124895204286435 0.0600893237953128 0.166315133354684 0.198224676548699 0.209914732155244
93.0 0.0947579000279762 0.179369008296477 0.084610970190188 -0.137063361194346 0.00507345903494429 0.131989815932862 -0.164809449629634 -0.111626952445008 0.0685949016275956 0.168733758751125 0.196821168398497 0.206342866823761
94.0 0.0971504866979674 0.167623922779949 0.0704735590758231 -0.132387375215619 0.0133384607819771 0.119048821524307 -0.164536552668643 -0.107899718278131 0.0676218935911369 0.163580634570946 0.190527155304887 0.19892577686676
95.0 0.0962144091382789 0.157378612175128 0.0611645089516658 -0.126796792496619 0.0175249727935891 0.10927172335335 -0.160629990838456 -0.102737637653577 0.0668499536820293 0.158574099109594 0.184295738538698 0.191705233964586
96.0 0.0940314701757237 0.146121823616406 0.0520906564856678 -0.120076961806817 0.0209703942715986 0.0991064208950667 -0.156245300714431 -0.101071561598363 0.0598239846628028 0.148066213212801 0.173848191595078 0.18099495690554
97.0 0.091171802083353 0.129678212876694 0.0385067123609191 -0.110425024040014 0.0263325141286551 0.0840926284975105 -0.154833726625399 -0.103652033876331 0.0463212482754387 0.130915486367253 0.157647484308399 0.165084024068316
98.0 0.0868577021722722 0.115459511122999 0.0286021097577264 -0.101158687951865 0.0291277561262733 0.0720309928745014 -0.148413777541098 -0.10199896284231 0.036758786773935 0.116890244164352 0.143233117836713 0.150352564287342
99.0 0.0789267750413027 0.104125577292259 0.0251989571083242 -0.0915262422823983 0.0268639125922142 0.0646623611185535 -0.136979813083626 -0.0968358416889406 0.0293277135615382 0.104695269738431 0.129687910913522 0.136540769462402
100.0 0.0679915908181913 0.0962373107504105 0.0282457996537833 -0.0821144848210439 0.0198728974487504 0.0622416035518192 -0.120275173297197 -0.0856015517933761 0.0267856806689988 0.0954800508832116 0.117422259913075 0.123651228122687
101.0 0.0556651062903474 0.0899031030777889 0.0342380378286128 -0.0727841222064013 0.010713542954875 0.0620705710842673 -0.0997249083360735 -0.0679043811957185 0.0295326621377627 0.0889966752255694 0.106091456168106 0.111056122317616
102.0 0.0422882671488078 0.0856633343438349 0.0433750883232848 -0.0639758097669306 -0.000543406096063501 0.0645192116584369 -0.0759290693407892 -0.046111968265238 0.0357159877550645 0.0849432828673469 0.0964080320724867 0.0999862739321574
103.0 0.0279983611614143 0.0790081111376394 0.0510097123338273 -0.0535032407933942 -0.0115056732741209 0.0650089119029821 -0.0552369356904569 -0.0290269099221286 0.0344166937530266 0.0740609324302006 0.0819424059817414 0.0853902074915108
104.0 0.0154113032438074 0.0689474223466425 0.0535361094281598 -0.0421793845936616 -0.0190623824941557 0.0612417659735019 -0.0402903354279632 -0.0188973678970204 0.0256475987618844 0.057561326072576 0.0641940696867263 0.0685881920626888
105.0 0.00761292223634452 0.0615878008919726 0.0539748654267521 -0.0346003769102788 -0.0231809568670654 0.0577813332036876 -0.0327471588871912 -0.0156181054844129 0.0191271796020864 0.0469379024972002 0.0530894584562713 0.0579308214366466
106.0 0.00249302242293224 0.0575608391318113 0.0550678293063131 -0.0300269532334607 -0.0262873813037425 0.0563143342418811 -0.0287096888063468 -0.0151106388364826 0.0152771782778017 0.0410653605400096 0.0468134023497902 0.0518229999131987
107.0 -0.000429391996206707 0.0538715535639831 0.0543009180818774 -0.0267210608068424 -0.0273651509201888 0.0540862115749975 -0.0281699648760637 -0.0170537718445453 0.0113492846154018 0.0361390635001828 0.0419712661138396 0.0471659662181177
108.0 -0.00149010672161066 0.0484127114127973 0.0499027748767809 -0.0234613066170904 -0.0256964483826558 0.0491577064021182 -0.0305834319263662 -0.0207399953670314 0.00621868027685564 0.0299929883120444 0.0362503162904683 0.0415948926473946
109.0 -0.00203241890359173 0.0424471535165699 0.0444795841144104 -0.0202073525237071 -0.0232559981351108 0.043463325640448 -0.0330341293128216 -0.0241651248000437 0.00141927604708952 0.0239702372986369 0.0305016375671203 0.0358399663980662
110.0 -0.00220731717279123 0.0320856241311791 0.0342929521761805 -0.0149391385910192 -0.0182501111038735 0.0331892416672118 -0.0320466975937289 -0.0222505873383845 -0.000921800565902864 0.0170752008697291 0.0222980629785873 0.0265435277548205
111.0 -0.00193799728068154 0.0249282790227778 0.0268663110121587 -0.0114951429103925 -0.0144021323082461 0.0258972953456171 -0.0259777516461248 -0.0131858767025766 0.00376049262471628 0.0158607123459349 0.0180823307837419 0.0201997049984749
112.0 -0.00172602721982196 0.0219647266879722 0.0236907620721827 -0.0101193459320067 -0.0127084028113146 0.0228277202893305 -0.0224540080629763 -0.00741811026302641 0.00768876915216474 0.0164708858279539 0.0167523031495434 0.0174855780905257
113.0 -0.00163079476880938 0.0205066099304412 0.0221373846426501 -0.00943789349364672 -0.0118841060391247 0.0213219606247949 -0.023225364937198 -0.00766440411097373 0.00737409725382219 0.0154802729296764 0.0155757071398093 0.0160190910628734
114.0 -0.00130275791354467 0.0193042468504639 0.0206069944387423 -0.00900074206823077 -0.0109548894366157 0.0199556260305792 -0.0271263384987361 -0.0121039720817371 0.00390723601798311 0.0129999763774601 0.0141601028263395 0.0150525412272391
115.0 -0.00114975360910552 0.0183918175528811 0.0195416090287039 -0.00862104310867145 -0.0103456757730439 0.0189666918038475 -0.0311607046088676 -0.0170516503314902 0.000163178455386076 0.0105620064421226 0.0129405188204035 0.0144144916391811
116.0 -0.00119286130940909 0.0175048751343326 0.01869775593777 -0.00815601749768523 -0.00994531062048092 0.0181013044744345 -0.0350675297645335 -0.0223170439040348 -0.00396499350765626 0.0079186491723167 0.011659744141207 0.013814408250503
117.0 -0.00120739707436789 0.0156690116528252 0.0168764575783317 -0.00723082244244148 -0.00904191865049026 0.0162727046613073 -0.0376565568954439 -0.0259528208486094 -0.00719701678976355 0.00534272763639356 0.00999746885606531 0.0125731819782083
118.0 -0.00109159976316481 0.0129301366425942 0.0140217930922218 -0.00591928473157364 -0.00755668347041729 0.0134759494467576 -0.0396913342125784 -0.0288426238185171 -0.0102350483739983 0.00245666187747145 0.00785702813791997 0.0107227399603325
119.0 -0.000651376446294644 0.00974734588224513 0.0103987490851256 -0.00454799431811248 -0.00552505488223749 0.0100730395450358 -0.0412517972712908 -0.0307939153656916 -0.0126583728610907 -0.00029018497261529 0.00562860761260683 0.00861264271418894
120.0 -0.000587692143700962 0.00685785502241036 0.00744556045537932 -0.00313508419819558 -0.00401661957251318 0.00715170365202725 -0.0422779830606349 -0.0325797114769385 -0.0151086622313992 -0.00303887708670229 0.00337761225432084 0.00650884679676441
121.0 -0.000528260709833567 0.00328061429547551 0.00380888170115121 -0.00137617821308991 -0.0021685678151549 0.00354474596714681 -0.0427087946775308 -0.0335428152057077 -0.017106998920153 -0.00582286115755967 0.000843901066286272 0.00398603570497208
122.0 -0.000862553904344272 0.000149468680787445 0.0010120308841301 0.000356544306582877 -0.000937290648869752 0.000580748736801236 -0.0418667922853767 -0.0332563495261671 -0.0179925262846489 -0.00779031579465163 -0.00127458086187834 0.00172553244807257
123.0 -0.00122029010368262 -0.00140268926732429 -0.000182394891264191 0.00131149055799964 -0.000518946804721613 -0.000792542617605432 -0.0405556573614043 -0.0325149981939423 -0.0178705843796601 -0.00836592726320046 -0.00211790999681231 0.000720575955694783
124.0 -0.00137235457975873 -0.00208975772489774 -0.000717405797627756 0.00173105660149485 -0.000327473493260937 -0.0014035844643568 -0.0397071229611871 -0.0322596901975636 -0.0176983967496755 -0.00838265321449277 -0.00223292028945895 0.000534993791682082
125.0 -0.00141992559023362 -0.00230670829536105 -0.000886784070645605 0.00186331717403119 -0.000266571753179285 -0.00159674757457344 -0.0390292963604467 -0.0321392213825996 -0.017415142302648 -0.00806999289857738 -0.00196791710820789 0.000760075204101885
126.0 -0.00148689900252288 -0.00236614533852157 -0.000879248979750589 0.00192651986359489 -0.000303824552400043 -0.00162269690513808 -0.0384224664899916 -0.0321364939237354 -0.017181452539597 -0.00770984683824571 -0.00161980665862276 0.00109001888336047
127.0 -0.00158443310409668 -0.0025148012156107 -0.000930371898502413 0.00204961839820074 -0.000327030609104952 -0.00172258521331276 -0.0378305950753905 -0.0321746330889118 -0.0170328607671992 -0.00743812540013212 -0.00134551863351359 0.00135325636124786
128.0 -0.00173546266202168 -0.00278185603554238 -0.00104639532308656 0.00225865998629102 -0.000344532702327666 -0.00191412256157856 -0.0371641355349156 -0.0321905799038452 -0.0169539873232361 -0.00727511228600948 -0.00118033998711602 0.00150796695825295
129.0 -0.0019168364422238 -0.00306245997414043 -0.00114562938750162 0.00248965096234383 -0.000385603514664883 -0.00210404550175863 -0.0364134267546637 -0.0321318327093312 -0.0168607392638743 -0.00713409936069305 -0.00105611442020995 0.00161456546815373
130.0 -0.00213222045970217 -0.00338953384482695 -0.0012573163996174 0.00276087857012463 -0.000437450567925497 -0.00232342797081411 -0.03560081153109 -0.0320264813082702 -0.0167848844535109 -0.00704574106426485 -0.000996051130114108 0.00165277666302836
131.0 -0.00238056172921845 -0.00377437783951149 -0.00139381281023713 0.00307747294025641 -0.000493374191977131 -0.00258409921731567 -0.034741188433993 -0.0318885498367108 -0.0167390412013057 -0.00702047651710409 -0.00100680732391656 0.00161743192829771
132.0 -0.00265978495545544 -0.00421796713716834 -0.00155818048282299 0.003438877670985 -0.00055080452456655 -0.00288807338788138 -0.0338448959072499 -0.0317268106291583 -0.0167277161998005 -0.00705982255606026 -0.00108770495137284 0.00151007220468239
133.0 -0.0029674001458534 -0.00471730066837719 -0.0017498996479244 0.00384235124350741 -0.000608751912164012 -0.00323360236681167 -0.0329178869996087 -0.0315459252976334 -0.0167510946713127 -0.00716132866906986 -0.00123518199585445 0.00133476098319482
134.0 -0.00330101919489876 -0.00526754870271917 -0.00196652905757105 0.00428428437938898 -0.000667244954502407 -0.00361704001717786 -0.0319643908433021 -0.0313483907085556 -0.0168076223112343 -0.00732088523040505 -0.00144442561969845 0.00109660177169117
135.0 -0.00365819970658918 -0.00586431805321694 -0.00220612296677251 0.00476126152753641 -0.000726039281524492 -0.00403522352131446 -0.0309880887228292 -0.0311358319002567 -0.0168949463340847 -0.00753424657853538 -0.00171073595658593 0.000800483861241121
136.0 -0.00403672848843964 -0.00650290655528975 -0.0024661804453302 0.00526982131085129 -0.000785273520473351 -0.00448454505055665 -0.029993253235651 -0.0309097162045496 -0.0170106910462003 -0.00779691264626038 -0.00202922870176854 0.000451442299404949
137.0 -0.00443453460308261 -0.00717909343626224 -0.00274456005763641 0.00580681354429897 -0.000844987985150404 -0.00496182754502623 -0.0289827632133233 -0.0306718179198032 -0.0171529541542396 -0.00810501900260167 -0.00239562813113509 5.39298298268291e-05
138.0 -0.00484946508504316 -0.00788889119128451 -0.00303942673659953 0.00636918031940654 -0.000905019540983955 -0.00546415937479712 -0.0279597018356358 -0.0304235356597726 -0.0173197374388553 -0.00845484892454344 -0.00280590389467685 -0.000387867972621457
139.0 -0.0052798438974045 -0.00862894185655664 -0.00334910313560057 0.00695439157393027 -0.000965368143745454 -0.00598902270758944 -0.0269260444981551 -0.0301658805559297 -0.0175093329328995 -0.00884309651365867 -0.0032564139670876 -0.000870219322450774
140.0 -0.00572383781843498 -0.00939562447578311 -0.00367177476640889 0.0075597231983864 -0.00102603280027856 -0.00653369487804712 -0.0258844092860422 -0.029899567222667 -0.0177195513412325 -0.0092662501001511 -0.0037434784902387 -0.00138935254421743
141.0 -0.00617986263830288 -0.0101859929757618 -0.00400611936399128 0.00818292371497905 -0.00108687471912385 -0.00709605130215661 -0.0248373569902938 -0.0296262735707685 -0.0179489744845463 -0.00972138590865574 -0.00426389787883108 -0.00194196256124893
142.0 -0.00664664186172831 -0.0109973371228977 -0.00435067990808597 0.00882198495972976 -0.00114798256343804 -0.00767400358359045 -0.0237866425967429 -0.0293473000736841 -0.0181962900427366 -0.0102058585559429 -0.00481477316638783 -0.00252506213588221
143.0 -0.00712282936585951 -0.0118275824005514 -0.0047047451308263 0.0094752084017386 -0.00120904293431713 -0.00826616122671445 -0.0227341399705283 -0.0290630736266675 -0.018460191673335 -0.010717418277508 -0.00539361729953382 -0.0031360993644266
144.0 -0.00760729548379751 -0.012673865617959 -0.00506658062100898 0.0101405988292113 -0.0012703554259204 -0.00887023151627576 -0.0216809593474953 -0.0287742506723679 -0.0187388423982375 -0.0112530631445046 -0.00599740323031365 -0.00377200410969724
145.0 -0.00809885701572877 -0.0135342275925922 -0.00543536627168759 0.0108165711217073 -0.00133174433958981 -0.00948481095873403 -0.0206286911907232 -0.0284811691516618 -0.0190309568938402 -0.0118106655124314 -0.00662380115724374 -0.00443039527598343
146.0 -0.00859620616403264 -0.0144069319343467 -0.005810708998174 0.0115015814586792 -0.00139274562545934 -0.0101088131314328 -0.0195793187454246 -0.0281848763871562 -0.0193356308705263 -0.0123884993046027 -0.00727092270869819 -0.00510935808506293
147.0 -0.00909821358414033 -0.0152904539868044 -0.006192207508579 0.012194349877829 -0.0014530039412242 -0.0107413051379635 -0.0185344452312474 -0.0278867848957126 -0.0196520591586937 -0.0129848510965739 -0.00793683505555035 -0.00580688789029221
148.0 -0.00960411836060855 -0.0161828443824428 -0.00657870908774874 0.0128934896559738 -0.00151270024959241 -0.0113807392913638 -0.0174945078410451 -0.0275863118273286 -0.0199787598259572 -0.0135975287837542 -0.00861927680969929 -0.0065207105911331
149.0 -0.0101127379037286 -0.0170827114195061 -0.00696996479800188 0.0135977531861843 -0.00157139399836338 -0.0120263188324811 -0.0164607020316981 -0.0272846612272553 -0.0203147758866014 -0.0142247731049916 -0.00931641422691032 -0.00724899075084289
150.0 -0.0106235313358549 -0.0179890475248641 -0.00736552140491458 0.0143063041149891 -0.00162899909458919 -0.0126772454297247 -0.0154333521158977 -0.0269822103488927 -0.0206592750427353 -0.0148652417071462 -0.0100268763135481 -0.00799034194866423
151.0 -0.0111355409386731 -0.0189003636062202 -0.00776485446434464 0.0150179355725079 -0.00168533051092512 -0.0133325743839219 -0.014413935074615 -0.0266798326757461 -0.0210115862252783 -0.0155175157478305 -0.0107490499612825 -0.0087430994668618
152.0 -0.0116480795952261 -0.0198155049144505 -0.00816744654035524 0.015731783657603 -0.0017403172537901 -0.0139914797223727 -0.0134032597864655 -0.026378123440794 -0.0213709272893325 -0.0161801855268627 -0.0114813284218612 -0.00950567850769135
153.0 -0.0121604539377867 -0.0207331491869152 -0.00857274013745444 0.0164467728767592 -0.00179384514425817 -0.0146529539967249 -0.0124017426673367 -0.0260770009189023 -0.0217360222332182 -0.0168514578956468 -0.0122220111825206 -0.0102763219315472
154.0 -0.0126720159000517 -0.0216523245981854 -0.00898032210305924 0.0171621554815923 -0.00184585055035157 -0.0153163330080393 -0.0114097921682326 -0.0257767626729696 -0.0221061656437451 -0.0175302156523701 -0.0129698346535275 -0.0110537855161953
155.0 -0.0131821892565403 -0.0225723367688711 -0.00939014956133621 0.0178772554102887 -0.00189601930163255 -0.0159812263030917 -0.0104279824575444 -0.0254779015258005 -0.0224808973309683 -0.0182154469801497 -0.0137237601759203 -0.011837040573187
156.0 -0.0136901921690872 -0.023493119344179 -0.00980287971057287 0.0185916275831802 -0.00194364624431657 -0.0166479665870243 -0.00945730779961902 -0.0251813989761297 -0.02286032002168 -0.0189069221053396 -0.014483253041419 -0.0126254604884057
157.0 -0.0141956221424015 -0.0244128429479146 -0.010217196370475 0.0193042180412842 -0.00198919318984391 -0.017315026960971 -0.0084974406631759 -0.024887178073466 -0.0232430310194881 -0.0196025819645938 -0.0152464368398971 -0.0134171700573722
158.0 -0.0146978352950912 -0.0253306143248661 -0.010632766450461 0.0200141930836115 -0.00203251943069082 -0.0179816698869846 -0.00754842591820003 -0.0245950536451237 -0.0236280170911532 -0.020301172461485 -0.0160119574285331 -0.0142109127966601
159.0 -0.0151964516335351 -0.0262455369472937 -0.0110490788378472 0.0207209779574776 -0.00207367868005982 -0.0186473215983698 -0.00661027696017482 -0.0243047362855793 -0.024014368462839 -0.021001465746826 -0.0167786810116963 -0.0150055566669603
160.0 -0.0156910814571452 -0.0271571007576196 -0.0114660159666338 0.021424082699082 -0.00211253362402705 -0.01931158967764 -0.00568296672162881 -0.0240167562780578 -0.0244015197384328 -0.0217025385998377 -0.0175455872298999 -0.0158000822129515
161.0 -0.0161813300681246 -0.0280650431749389 -0.0118837113905318 0.0221232065525649 -0.00214881949506553 -0.019974417663842 -0.00476665593775072 -0.0237312895770372 -0.0247892283677574 -0.0224038672211947 -0.0183120537568303 -0.0165939160931503
162.0 -0.0166668972348016 -0.0289688408660407 -0.0123019427476859 0.0228179035707246 -0.00218250187981419 -0.0206353883356354 -0.00386179610318079 -0.0234490575166892 -0.0251774180037896 -0.023104842320132 -0.0190774690987584 -0.0173863264734515
163.0 -0.0171473372798298 -0.0298676907026784 -0.0127204014873499 0.0235075075028472 -0.00221348057914239 -0.0212940443080038 -0.00296782393274402 -0.0231697521734209 -0.0255652245134721 -0.0238044709588237 -0.0198408391837585 -0.0181764028880139
164.0 -0.017622178168859 -0.0307616159035318 -0.0131394624785856 0.024191869436242 -0.002241344966632 -0.0219505382710943 -0.00208474055978805 -0.0228933605842761 -0.0259521545162171 -0.0245021934471629 -0.0206015552185214 -0.0189635795844757
165.0 -0.0180915165311055 -0.031650046189405 -0.0135585423966241 0.0248707671516226 -0.00226649014117605 -0.022604269559731 -0.00121189252679381 -0.0226199245952022 -0.0263378084584605 -0.0251972849788603 -0.0213589156374754 -0.01974703159694
166.0 -0.0185550139570275 -0.0325317175897171 -0.0139767101904606 0.0255433584586773 -0.00228914376189306 -0.0232542011572362 -0.000348951192746398 -0.0223489320358 -0.0267212043377096 -0.0258884990705187 -0.0221117829604136 -0.0205258490340833
167.0 -0.0190124962312276 -0.0334063190398452 -0.0143938261846001 0.0262094038698846 -0.00230933084237 -0.0239000903169486 0.000505014382804772 -0.0220799736793901 -0.0271016425353567 -0.0265751455051484 -0.022859474566526 -0.0212992723618689
168.0 -0.0194637281084239 -0.0342736904017306 -0.0148099640312841 0.0268686830568155 -0.00232687988619327 -0.0245418120713336 0.00134999631958601 -0.0218132270083398 -0.0274788599219855 -0.027256674877186 -0.0236014934801712 -0.0220668620479543
169.0 -0.0199085399634798 -0.0351332640416753 -0.0152246764535574 0.0275208885155448 -0.00234192579496797 -0.025178962450784 0.00218663198672207 -0.0215483467174669 -0.027852235843288 -0.0279324647136111 -0.0243372442195883 -0.0228280521827564
170.0 -0.0203469900303698 -0.0359849418156595 -0.0156379272678211 0.0281659589798039 -0.00235454772077572 -0.0258114305278811 0.00301574440338978 -0.0212848639252936 -0.0282214022630948 -0.0286020490032494 -0.025066371707596 -0.0235824543936802
171.0 -0.0207788171721563 -0.0368283820823531 -0.0160495522884471 0.0288036203125254 -0.00236463114966243 -0.0264389651190397 0.00383753407607185 -0.0210226828067147 -0.02858587859787 -0.0292647996856853 -0.0257882564739485 -0.024329529108508
172.0 -0.0212039839925926 -0.0376638456368539 -0.0164598551465037 0.029433925463633 -0.00237205890587965 -0.0270618735875833 0.00465237108326906 -0.0207619966271531 -0.0289458541143748 -0.0299209756637188 -0.0265029677662795 -0.0250693867068897
173.0 -0.0216222771624116 -0.0384902537541453 -0.0168679247272865 0.0300562709404053 -0.00237717337729078 -0.027679101182116 0.00546109125125073 -0.0205023226485646 -0.0293005528998675 -0.0305695457575263 -0.027209716404593 -0.0258012106644943
174.0 -0.0220337809357815 -0.0393073422158463 -0.0172735830992756 0.0306705886577279 -0.00238009745606287 -0.0282904930647501 0.00626439657714542 -0.0202431697575145 -0.0296493814320635 -0.031209979109136 -0.0279080475946166 -0.026524580629371
175.0 -0.0224382475711269 -0.0401150720393634 -0.0176768357009058 0.0312766494875077 -0.00238070518236571 -0.0288959695239502 0.00706337624396823 -0.0199836058546229 -0.0299916945263717 -0.0318417598326664 -0.0285975816472685 -0.0272391831629255
176.0 -0.0228356465682196 -0.0409127924045273 -0.0180771516189578 0.0318742384344162 -0.00237923253130504 -0.029495004330107 0.0078583920407291 -0.0197236362827647 -0.0303271115182761 -0.0324643797499641 -0.029277831980019 -0.0279446143081631
177.0 -0.0232261077834271 -0.0417007504972708 -0.0184746456907889 0.0324634388949226 -0.00237571850146327 -0.0300877147317307 0.0086504598997827 -0.0194625360020854 -0.0306553394005274 -0.0330777713251039 -0.0299488392132285 -0.0286409087022383
178.0 -0.0236099891837987 -0.0424787339349734 -0.0188687462837251 0.033044342321423 -0.00237061984380078 -0.0306737244148641 0.00944090825098359 -0.0191995436025473 -0.0309757906568783 -0.0336815116352788 -0.0306103331423582 -0.0293279386184998
179.0 -0.0239869898594617 -0.0432468759785033 -0.0192599354273685 0.033616947274836 -0.00236352153721002 -0.0312534218829945 0.0102299746004094 -0.0189345097021909 -0.031288308388285 -0.0342753829571215 -0.0312622717031024 -0.03000563830245
180.0 -0.0243571974968881 -0.044005002634608 -0.0196478305219621 0.0341811074562333 -0.00235469511976958 -0.0318264249078828 0.0110180868896771 -0.0186677940724682 -0.0315933940544366 -0.0348597583988497 -0.0319047302792074 -0.0306739739032529
181.0 -0.0247206572376349 -0.0447528787723674 -0.0200321860833428 0.0347367475499903 -0.00234424641746798 -0.0323925367159853 0.0118061932162708 -0.0183987085775437 -0.0318903839421487 -0.0354341022485606 -0.0325373595238278 -0.0313327339168411
182.0 -0.0250774893595848 -0.045490237786799 -0.0204127301766119 0.0352838773025014 -0.0023323900240895 -0.0329514619295823 0.012595266860443 -0.0181262682090049 -0.0321785482127462 -0.0359979931602582 -0.0331599310716119 -0.0319817609402071
183.0 -0.025427610224481 -0.0462170394666717 -0.0207894198466639 0.0358223561731928 -0.00231911511548743 -0.0335032425637737 0.0133860029505365 -0.0178501599556578 -0.0324576566986889 -0.0365512142223275 -0.0337723273586153 -0.0326209739412756
184.0 -0.0257712678909744 -0.0469334086690668 -0.0211621844605752 0.036352354407678 -0.00230455682546592 -0.0340478032094817 0.0141789534205106 -0.0175704167547769 -0.0327280761018547 -0.0370939448834413 -0.0343748274976874 -0.0332505252816558
185.0 -0.0261082989450852 -0.0476391185550483 -0.0215308420979847 0.036873717052688 -0.00228873620241208 -0.0345850080069103 0.0149743053707795 -0.0172868129658817 -0.0329895585284765 -0.0376261319668447 -0.0349671385036688 -0.0338702508012787
186.0 -0.0264389588957716 -0.0483344405013607 -0.0218954931825665 0.0373867039728087 -0.00227173200927437 -0.0351149810920075 0.0157731740283952 -0.0169986987148481 -0.0332418793225365 -0.0381476995774436 -0.0355494491814449 -0.0344803571056509
187.0 -0.0267635248387604 -0.0490194171757687 -0.0222558982969104 0.037891497467352 -0.00225379827890698 -0.0356376893320334 0.0165764731549011 -0.0167053998067978 -0.0334847287522388 -0.0386585601245982 -0.036121856728979 -0.0350809990759692
188.0 -0.0270819453472647 -0.0496939735051906 -0.0226120797454817 0.03838794878837 -0.0022349250829047 -0.0361530186313215 0.0173846246412274 -0.0164067632393332 -0.0337179473656729 -0.0391586199967262 -0.0366843141456843 -0.0356721594073449
189.0 -0.0273943395045258 -0.0503582163996035 -0.0229639034526815 0.0388762724756274 -0.00221523346039716 -0.0366610558107726 0.0181982823537652 -0.0161023706103206 -0.0339415986340549 -0.0396481221181465 -0.0372369913127984 -0.0362540717879106
190.0 -0.0277008171347184 -0.0510122008969478 -0.0233114459536139 0.0393565304562082 -0.00219470324019076 -0.0371617970469821 0.0190179284651971 -0.0157918124462237 -0.0341553270778926 -0.0401268519123327 -0.0377799271669094 -0.0368267594830926
191.0 -0.0280014832953905 -0.051656197927908 -0.0236547466490402 0.0398288516492915 -0.00217338226125802 -0.0376554829684371 0.0198438112011058 -0.0154752661023263 -0.0343595804457494 -0.0405951841075163 -0.0383133358302623 -0.0373904285475213
192.0 -0.0282966346676404 -0.052290444008054 -0.0239938743420844 0.0402935450200961 -0.00215139219012828 -0.0381421404135025 0.0206767376206507 -0.0151521436112224 -0.0345542496059307 -0.0410532145774689 -0.0388375216117993 -0.0379453791368793
193.0 -0.0285864725041563 -0.0529151094164751 -0.0243286703755949 0.0407507696258937 -0.00212889270022954 -0.0386218802374604 0.0215169776449714 -0.0148222393222489 -0.0347392783767416 -0.0415010897173418 -0.0393526411717113 -0.0384918628119532
194.0 -0.0288709548530295 -0.0535305729300964 -0.0246595867848155 0.041200752908466 -0.00210568458017597 -0.0390950506254799 0.0223648157892781 -0.0144854958844887 -0.0349148804322863 -0.0419390789697358 -0.0398590177564673 -0.0390301546359256
195.0 -0.0291504967913898 -0.0541371265844231 -0.0249866622029421 0.0416438060337378 -0.00208192242727967 -0.0395618793448742 0.0232207866787024 -0.0141413500603617 -0.0350810202152811 -0.0423675636422266 -0.0403570603722185 -0.0395607358486038
196.0 -0.0294251179261594 -0.0547350177599221 -0.0253099165185911 0.0420800406725585 -0.00205761790212215 -0.0400224351323537 0.0240847773868026 -0.0137901911625983 -0.0352380675754891 -0.0427866429956739 -0.0408468825392288 -0.0400837571566001
197.0 -0.0296950709479077 -0.055324470848361 -0.0256294084899098 0.0425097569105963 -0.00203282552700543 -0.040476947451457 0.0249573120106447 -0.0134314433021225 -0.0353858732784147 -0.043196513688284 -0.0413287367758968 -0.0405994417027229
198.0 -0.029960534462717 -0.0559061350810186 -0.0259455565208487 0.0429333033113137 -0.00200748118357539 -0.0409258255476426 0.0258380296070713 -0.0130657803947538 -0.035525282365026 -0.0435979077126406 -0.0418032867932707 -0.0411083410365589
199.0 -0.0302217944955816 -0.0564802961669516 -0.026258430450359 0.0433510533948521 -0.00198167316169318 -0.0413693771418115 0.0267269869570355 -0.0126931127024283 -0.0356565843097406 -0.0439912504225703 -0.0422708742740454 -0.0416108361380847
200.0 -0.0304790468133591 -0.0570472467490911 -0.0265681632706998 0.0437631509324105 -0.0019554372096723 -0.0418077121312928 0.0276244073691756 -0.0123132484693362 -0.0357797825777611 -0.0443766637542246 -0.0427316751186589 -0.0421071231382304
201.0 -0.0307324892368006 -0.0576075741561313 -0.0268750660439374 0.0441700580932028 -0.0019287140999972 -0.0422413237661753 0.0285302117267673 -0.0119260889783594 -0.0358950245110762 -0.0447545015972753 -0.0431862165560229 -0.0425977882000546
202.0 -0.0309824176827351 -0.0581617748260827 -0.0271793959455344 0.0445721098436179 -0.00190151700938791 -0.0426706115328414 0.0294443593000147 -0.0115318745254542 -0.0360027741171651 -0.0451253342912705 -0.0436348670456751 -0.0430831330840509
203.0 -0.0312289844910396 -0.0587104924832905 -0.0274814794485049 0.0449697212232968 -0.0018737556825841 -0.0430959751668775 0.0303665380047979 -0.0111307773358768 -0.0361035613862076 -0.0454897465668198 -0.044078252947184 -0.0435637983320531
204.0 -0.0314725592034183 -0.0592541070405271 -0.0277815331426058 0.0453633484941029 -0.00184551950980837 -0.0435178145321617 0.0312963931007744 -0.0107229831110112 -0.0361978047186204 -0.045848185005063 -0.044516793753184 -0.0440401622184563
205.0 -0.0317133320623052 -0.0597930566761194 -0.02807971704899 0.0457532265425633 -0.00181682054616729 -0.0439363840005376 0.0322337419653458 -0.0103087087495186 -0.0362857680289753 -0.0462009280281889 -0.0449508024598878 -0.0445124680007001
206.0 -0.0319515950831631 -0.0603278580832344 -0.0283762591056514 0.0461397188865657 -0.00178766014577086 -0.0443520571210581 0.0331782965057897 -0.00988809017189767 -0.0363679753370634 -0.0465486041633226 -0.045380682796549 -0.0449811805447914
207.0 -0.032187595636141 -0.0608590683749813 -0.028671470733968 0.0465233037836052 -0.00175805356153162 -0.0447652687959668 0.0341295687746084 -0.00946144965156336 -0.0364448419697066 -0.0468916825383304 -0.0458069337217315 -0.0454467817635256
208.0 -0.0324216066270548 -0.0613870713954741 -0.0289654637362982 0.0469043244824209 -0.0017280668689786 -0.0451762914350815 0.0350872590539475 -0.00902896765274 -0.0365167758172512 -0.0472305502213204 -0.0462300546992971 -0.0459096653067741
209.0 -0.0326539141076453 -0.0619125984630798 -0.029258732343452 0.0472832488058209 -0.00169758852613681 -0.0455856534316003 0.0360506308148168 -0.0085911446421897 -0.0365844235384979 -0.0475659887097521 -0.0466504969338785 -0.04637027642481
210.0 -0.0328847623778992 -0.0624360260651736 -0.0295512883918129 0.0476604146307005 -0.00166675033598797 -0.0459936268057232 0.0370193534067388 -0.00814801507434794 -0.0366480209988156 -0.0478981577267187 -0.0470685897472281 -0.0468290384127635
211.0 -0.0331144712824533 -0.0629576935779457 -0.029843283532907 0.0480360929369678 -0.00163560559574251 -0.0464004971532697 0.0379928199344913 -0.00770000910113916 -0.0367080292587261 -0.0482276246922911 -0.0474847937924519 -0.0472861691856765
212.0 -0.0333432539987335 -0.0634781638693113 -0.0301349413959907 0.0484107143429739 -0.00160414777959339 -0.0468065570588758 0.0389703783290096 -0.00724749857754294 -0.0367650253106567 -0.0485549243147534 -0.047899491774797 -0.0477421690824875
213.0 -0.033571365829923 -0.063997775226635 -0.0304264256261963 0.0487845975725219 -0.0015724657147975 -0.0472121027050645 0.0399514503041661 -0.00679083505077062 -0.0368193061940017 -0.0488803803847121 -0.0483130262714537 -0.048197295680884
214.0 -0.0337990837658145 -0.0645169929185774 -0.0307179175078052 0.0491580522647453 -0.00154056631470706 -0.0476174806459343 0.0409353014803211 -0.00633039842895254 -0.0368714615007825 -0.0492044992271638 -0.0487258162401524 -0.0486519241803081
215.0 -0.034026598921886 -0.0650360079490623 -0.0310094133284055 0.0495313348625716 -0.00150859384450424 -0.0480227237316728 0.041921262677976 -0.00586653955317757 -0.0369218432761048 -0.0495275415014572 -0.0491381258823736 -0.0491062962551936
216.0 -0.0342542037630487 -0.0655552097642923 -0.031301008215544 0.0499047229425414 -0.00147658375733997 -0.0484280914705668 0.0429086982830825 -0.0053995748928916 -0.036970729793762 -0.049849883993493 -0.0495501397300904 -0.0495606333598059
217.0 -0.0344820003327505 -0.066074847373025 -0.0315928481802104 0.050278407922194 -0.00144457371246725 -0.0488338144978635 0.0438965532870597 -0.00493011374670317 -0.0370187980238446 -0.0501721088299448 -0.0499623409364239 -0.0500152435776582
218.0 -0.0347102352410517 -0.066595048966562 -0.0318848143123567 0.0506526339025837 -0.00141271895131869 -0.0492399145073437 0.0448843330840991 -0.00445829996767484 -0.0370661538780868 -0.050494224577189 -0.0503748326736125 -0.0504702369927545
219.0 -0.0349390839637493 -0.0671160746160462 -0.0321769909544091 0.0510275750678556 -0.00138103146607317 -0.0496465482251849 0.0458710552575643 -0.0039847364733085 -0.0371132885547678 -0.0508167208388516 -0.0507877650941049 -0.0509258158351247
220.0 -0.0351685883175468 -0.067637961169046 -0.0324693730070285 0.0514032725697621 -0.00134961446910124 -0.0500536992963061 0.0468560199756437 -0.00350966087035229 -0.0371604064065451 -0.0511396555885722 -0.0512013610554228 -0.0513820356947223
221.0 -0.0353990124267509 -0.0681606790755653 -0.0327616667288819 0.0517798446322087 -0.00131866665287195 -0.0504612137429266 0.0478384302862017 -0.00303347204063306 -0.0372078552322748 -0.0514632527489916 -0.0516157838054045 -0.0518390222283313
222.0 -0.0356303467061646 -0.0686844072005175 -0.0330540605355721 0.0521573521176187 -0.00128814474745966 -0.0508692548931 0.0488173422002182 -0.00255665189142024 -0.0372559111197537 -0.0517877731549986 -0.0520310688657218 -0.0522968401248682
223.0 -0.0358626832599876 -0.0692089465085439 -0.0333462632697763 0.0525357778389969 -0.00125819629499 -0.0512776157129931 0.0497918815912242 -0.00207971051620436 -0.0373049587975469 -0.0521133510860631 -0.0524473315618789 -0.0527555226866011
224.0 -0.036096020984691 -0.0697341945349685 -0.0336381735612017 0.0529150644290082 -0.00122893121464545 -0.0516861896202635 0.0507613558565193 -0.0016026824733863 -0.0373548566908611 -0.0524399101120351 -0.052864437186743 -0.0532148929803105
225.0 -0.0363304078315311 -0.0702599529722399 -0.0339295451463326 0.0532951338352213 -0.00120044976094862 -0.0520947276681994 0.0517247291687603 -0.00112622358343687 -0.0374059685903275 -0.0527676049636249 -0.0532824134309402 -0.053675005477723
226.0 -0.0365658199667616 -0.0707860226916416 -0.0342202027277752 0.0536758973563849 -0.00117282780524935 -0.05250310169744 0.0526812741999618 -0.000650547742563064 -0.0374583847389706 -0.0530963697391118 -0.053701177511062 -0.0541357426631517
227.0 -0.0368021966012573 -0.0713120585836358 -0.034509861983869 0.0540571152510871 -0.00114618688951619 -0.0529109546145662 0.0536300828040621 -0.000176117316455138 -0.0375123456719176 -0.0534261705118684 -0.0541206868096798 -0.054596898480689
228.0 -0.0370394579210273 -0.0718377859449037 -0.0347983280246437 0.0544386155795547 -0.00112057017658828 -0.0533180540662403 0.0545701537486962 0.000296723408672194 -0.0375677811407507 -0.0537569898162498 -0.0545407738289885 -0.0550583668514349
229.0 -0.0372775143179584 -0.0723628207596186 -0.0350853064420552 0.054820164268012 -0.00109610177762759 -0.0537240378386772 0.0555008260349551 0.00076759244037291 -0.0376248975779352 -0.0540887216221102 -0.0549612553013261 -0.0555198505684925
230.0 -0.0375161741031403 -0.072886625698455 -0.035370451595518 0.0552013982169809 -0.00107285043779052 -0.0541285253844618 0.0564211771440498 0.00123622519938721 -0.0376835586594251 -0.0544212143057317 -0.0553819398406072 -0.0559811966278493
231.0 -0.0377553385938953 -0.0734088756214774 -0.0356535370276868 0.0555820819811667 -0.00105088065913957 -0.0545311752372695 0.0573302954831636 0.00170224142623788 -0.0377438882821693 -0.0547542442521739 -0.05580248632325 -0.0564420351459003
232.0 -0.037994762910309 -0.073928966470326 -0.0359342035600708 0.0559618517550244 -0.00103028387098133 -0.0549315690112509 0.0582273236036004 0.00216511542926419 -0.0378058531903898 -0.0550876478236745 -0.0562227676560116 -0.0569021271848384
233.0 -0.0382342724672746 -0.074446393194451 -0.0362121207272042 0.0563403261716911 -0.00101109307109353 -0.055329248721893 0.0591114804497637 0.00262471728517932 -0.0378693877444393 -0.0554212922591063 -0.056642427294317 -0.0573611071411513
234.0 -0.0384736803485414 -0.0749605561550772 -0.03648687580655 0.0567171148236251 -0.0009933931740474 -0.0557237359990374 0.059982024293714 0.00308064047312332 -0.0379344096332471 -0.0557546725379505 -0.0570610876092969 -0.0578185927223709
235.0 -0.0387126962509876 -0.0754708555381653 -0.0367581592871851 0.0570917741297252 -0.000977241479828409 -0.0561145419778649 0.0608379910568404 0.00353251074773179 -0.0380010705599877 -0.0560877227498529 -0.0574785056758329 -0.058274290083168
236.0 -0.0389510251666276 -0.075976691439449 -0.0370256662728251 0.0574638331348016 -0.000962656327382953 -0.056501220910198 0.0616785933091443 0.00397989284829591 -0.0380690604675455 -0.0564200693282206 -0.0578943138377191 -0.0587278053532866
237.0 -0.039188418184743 -0.0764774153888527 -0.0372889972041117 0.0578329038300285 -0.000949707806918077 -0.0568832036865018 0.0625032315991832 0.0044226597385375 -0.0381382197365332 -0.056751325881141 -0.0583079831876674 -0.0591785961302776
238.0 -0.0394246016064224 -0.0769723539143111 -0.0375478008272498 0.0581984953498191 -0.000938406286060062 -0.0572601002868259 0.0633110150931973 0.00486031419706303 -0.038208563232589 -0.0570812449722245 -0.0587192414408214 -0.0596263346625294
239.0 -0.0396592889716348 -0.0774608206725749 -0.0378016051983777 0.0585600638772675 -0.000928841525815778 -0.0576312247328032 0.0641013396261865 0.0052925808433732 -0.0382800015699184 -0.0574095051421942 -0.0591276087876739 -0.0600705125858944
240.0 -0.0398920902121228 -0.0779422197329468 -0.0380501673577753 0.0589171353745104 -0.000920955419101831 -0.0579961753590204 0.0648733604571815 0.00571910927657643 -0.038352197615982 -0.0577356497855969 -0.0595326441417801 -0.060510674113816
241.0 -0.040122755998891 -0.0784158561516097 -0.0382930711120632 0.059269271726382 -0.000914829646547997 -0.0583544542693919 0.0656264486306854 0.00613947651125107 -0.0384252204095913 -0.058059395319663 -0.0599339748709353 -0.0609464390463778
242.0 -0.040350963898337 -0.078881032531519 -0.0385300536828667 0.0596159562722307 -0.000910447549439503 -0.0587055140276664 0.0663600377595831 0.00655353271889932 -0.038498765856848 -0.0583802075992877 -0.0603311180255353 -0.0613772234993495
243.0 -0.0405764023614986 -0.0793370987320527 -0.0387607371933962 0.0599567289544067 -0.000907828692992221 -0.0590488787327182 0.0670733995899226 0.00696073983293107 -0.0385727259276271 -0.0586978116431527 -0.0607236794219534 -0.0618026298466725
244.0 -0.0407987169235361 -0.0797834774598581 -0.0389848300715424 0.0602911103354874 -0.000906938026499622 -0.059384157829522 0.0677661106925491 0.00736101007872674 -0.038646899449249 -0.0590117747729554 -0.0611110679770553 -0.0622220652330269
245.0 -0.0410175795456016 -0.0802195318851021 -0.039201988136677 0.0606185624818592 -0.000907795835928139 -0.059710762102971 0.0684374678898233 0.00775382277962181 -0.0387212313760907 -0.0593217286850564 -0.0614929308781011 -0.0626352244527001
246.0 -0.0412327243124766 -0.0806446915669113 -0.0394119856830502 0.0609387114231352 -0.000910360648907834 -0.0600283397019977 0.0690870606620366 0.00813900692665753 -0.0387954022541529 -0.0596273382163051 -0.0618688438980339 -0.0630415137095976
247.0 -0.0414437717325048 -0.081058323203153 -0.0396145609578174 0.0612510250014467 -0.000914614996746076 -0.0603364183752603 0.0697143865548555 0.00851616395942317 -0.0388693446651926 -0.0599280911870464 -0.06223839456461 -0.0634404817556097
248.0 -0.0416504294022328 -0.0814598581690363 -0.0398094336508588 0.0615551322197972 -0.000920522230412871 -0.0606346094466661 0.0703190413434937 0.00888502076936468 -0.0389429268631468 -0.060223675404556 -0.0626009823795982 -0.0638317022078817
249.0 -0.0418524012324116 -0.0818488096554397 -0.0399964109373711 0.0618505994897586 -0.000928020785716191 -0.0609226157845548 0.0709005743336439 0.00924528149649849 -0.0390158869468589 -0.0605136390338613 -0.0629563467220264 -0.0642147129649911
250.0 -0.0420494377556806 -0.082224684453112 -0.0401752965111913 0.062137058039153 -0.00093709401001763 -0.061199993307486 0.0714586079469125 0.00959676957053173 -0.0390879930492172 -0.060797749467427 -0.0633040137870298 -0.0645890820567282
251.0 -0.0422412164672061 -0.082587034577334 -0.0403458437545703 0.0624141239442632 -0.000947679473942697 -0.0614664648801324 0.0719929478035261 0.00993918545869941 -0.039159125803549 -0.0610755473218848 -0.0636435455793917 -0.0649543930246243
252.0 -0.0424274257813557 -0.0829354353252654 -0.0405080712651928 0.0626814540006225 -0.000959675170571404 -0.0617217422733736 0.0725032512387333 0.0102723749596173 -0.039229078201047 -0.0613466020262968 -0.0639743769808513 -0.0653100433183143
253.0 -0.0426078082531316 -0.0832694254603657 -0.0406616489817457 0.0629386289275749 -0.000973065460802212 -0.061965531546934 0.0729891477690869 0.0105958656826095 -0.0392978407109728 -0.0616107404393488 -0.0642964111423517 -0.0656559168184546
254.0 -0.0427820857901213 -0.0835887190157523 -0.0408066010639928 0.0631853843573954 -0.000987730213803818 -0.0621976328591183 0.0734508348222178 0.0109097055540934 -0.0393649717526004 -0.0618673882331837 -0.0646090159730579 -0.065991371513743
255.0 -0.0429500667092114 -0.0838929261770436 -0.0409428429108151 0.0634214871531673 -0.00100361534855312 -0.0624178462914231 0.0738878803221734 0.0112137251694552 -0.0394304380747867 -0.0621163952982254 -0.0649120116266434 -0.0663163194894533
256.0 -0.043111555291988 -0.0841818462653014 -0.0410702824496551 0.0636466717364337 -0.00102063334498046 -0.0626260204051632 0.0743001588722081 0.0115075462019551 -0.0394940770015502 -0.0623574902796633 -0.0652050144009079 -0.066630181773561
257.0 -0.0432662567039191 -0.084455181892284 -0.041188920800331 0.0638607043469855 -0.00103867122008981 -0.0628220287193745 0.0746878970334354 0.0117911679640069 -0.0395557077475344 -0.062590096808064 -0.0654876326860628 -0.0669326603075628
258.0 -0.0434140191623009 -0.0847126829219012 -0.0412986615006124 0.0640633676048508 -0.00105768536531983 -0.0630056605627669 0.0750510173635261 0.0120645415822765 -0.0396150431658408 -0.0628141122421947 -0.0657595193208031 -0.0672234075715937
259.0 -0.0435546189703458 -0.084954172063133 -0.0413995519298457 0.064254404043349 -0.00107755629198394 -0.0631768559997722 0.0753895285140335 0.0123273992996586 -0.0396719354314083 -0.063029241144892 -0.0660203985455469 -0.067502196140843
260.0 -0.0436879894868763 -0.0851795580454277 -0.0414916164792218 0.0644337781557052 -0.0010981982268616 -0.0633355841751764 0.0757034834581927 0.012579700311802 -0.0397265510397498 -0.0632352829038532 -0.066270128397497 -0.0677688118968429
261.0 -0.0438138538077874 -0.0853886968434013 -0.0415748677054818 0.0646012775853644 -0.00111949908624589 -0.0634817806851578 0.0759929579863244 0.0128214236123655 -0.0397783934715002 -0.0634318431264208 -0.0665083931964963 -0.0680229990519556
262.0 -0.0439321179004337 -0.0855815143118643 -0.0416493605922764 0.0647568415291732 -0.00114139146485523 -0.0636154123742169 0.0762582337125707 0.0130524613484302 -0.039827449712113 -0.0636189613735312 -0.0667350304283802 -0.0682644803669882
263.0 -0.0440426848368478 -0.0857579237610386 -0.0417151719649009 0.0649002931271987 -0.00116375817910718 -0.0637365592124104 0.0764995526524145 0.0132730005934236 -0.0398734219454563 -0.063796124298447 -0.0669496167942959 -0.0684930160787098
264.0 -0.0441454561985316 -0.0859178805624717 -0.0417723898928692 0.0650316383695361 -0.0011865243463356 -0.0638451653301151 0.0767171849550551 0.013482895057143 -0.0399163024119595 -0.0639633102237828 -0.0671521284547257 -0.068708482755475
265.0 -0.0442402842802924 -0.0860614102605107 -0.0418211082342904 0.0651508318205644 -0.00120959804516868 -0.0639412990040118 0.0769113667337495 0.0136822149865359 -0.0399558445201458 -0.0641202168737216 -0.0673422620207728 -0.0689106227764423
266.0 -0.0443271900812718 -0.0861885745249091 -0.04186137530792 0.0652578500897354 -0.00123291254615195 -0.0640249953833724 0.0770823650991932 0.0138709480258206 -0.0399921639199453 -0.0642668341928187 -0.0675200068639718 -0.0690994005554743
267.0 -0.0444060388538822 -0.0862993080649303 -0.0418932645079225 0.065352681135445 -0.00125639468104717 -0.0640963210826273 0.0772305601584823 0.0140492333722416 -0.0400248834744413 -0.0644030114463866 -0.0676851634352806 -0.0692746522145194
268.0 -0.0444768097485632 -0.0863937713459259 -0.0419169106568034 0.0654353187585984 -0.00127995341108099 -0.0641553589146715 0.0773563901899824 0.0142170456467112 -0.040053954589216 -0.0645284769578033 -0.0678375804862152 -0.069436293388108
269.0 -0.0445394920318277 -0.0864719984571254 -0.0419324802007717 0.0655057597678621 -0.00130350790535827 -0.0642022485508336 0.0774603234190011 0.0143747114194329 -0.040079206689472 -0.0646431879049252 -0.0679772286724481 -0.0695842806443564
270.0 -0.044594080178008 -0.0865341039866025 -0.0419400588274008 0.065564099559037 -0.00132701169968091 -0.0642370618948071 0.0775426494102833 0.014522059175317 -0.0401004549234918 -0.0647470252039189 -0.0681039958486117 -0.0697184945855329
271.0 -0.0446405713424547 -0.0865802439637511 -0.041939690649202 0.0656103872424922 -0.00135045542979041 -0.0642599330017938 0.0776040509465734 0.0146595828496184 -0.0401177982058686 -0.0648397819915846 -0.0682179213202733 -0.0698388737449209
272.0 -0.0446789640607243 -0.0866104987135014 -0.0419315439336583 0.0656446966199199 -0.00137370812457039 -0.0642710279229897 0.0776450250868776 0.014787294126567 -0.0401308993035875 -0.0649216428895835 -0.0683187342060299 -0.0699454349984218
273.0 -0.0447093546176321 -0.0866250551457221 -0.041915705305947 0.0656671627236236 -0.00139681395378017 -0.0642703836232529 0.0776657792009933 0.0149052475406391 -0.0401398272037345 -0.0649925573842483 -0.0684067317286425 -0.0700383325919375
274.0 -0.0447316470231368 -0.0866240094828092 -0.0418923649193438 0.0656778065497373 -0.00141965009821431 -0.0642581646904092 0.0776671963539802 0.0150138593214126 -0.0401444718632229 -0.0650522083546592 -0.0684816787454098 -0.0701173548160852
275.0 -0.0447459859383912 -0.0866075568187486 -0.0418615236272518 0.0656767844652853 -0.00144223581267199 -0.0642345528940447 0.0776496826340219 0.0151132467078177 -0.0401446310730873 -0.0651007721804579 -0.0685436968001651 -0.07018263527832
276.0 -0.0447524458358826 -0.0865758461085324 -0.0418233274270887 0.0656641769690123 -0.00146456160190302 -0.0641995932909453 0.0776138837721548 0.0152037126520062 -0.0401402977735783 -0.0651381455855724 -0.068592751425731 -0.0702342427606149
277.0 -0.0447510650545238 -0.0865290510738641 -0.0417779485179792 0.0656400740215475 -0.00148657405833178 -0.0641535031540732 0.0775603747916488 0.0152855101544047 -0.0401313227722117 -0.0651643239221799 -0.0686289219169045 -0.0702722126723697
278.0 -0.0447419603701529 -0.0864674067058685 -0.041725427029775 0.0656046674932784 -0.00150827965094862 -0.0640963943369396 0.0774897428343237 0.0153587209418918 -0.0401176777831018 -0.0651794018362718 -0.0686521520564342 -0.0702966117619301
279.0 -0.0447251433803583 -0.0863909854601204 -0.0416657836215803 0.0655580561603084 -0.00152968656196715 -0.064028372941808 0.0774025327613457 0.0154237752428682 -0.0400992026864136 -0.0651833310134898 -0.0686627040194798 -0.0703075714304918
280.0 -0.044700765613733 -0.0863000187146535 -0.0415992230062744 0.065500387911928 -0.00155076504009127 -0.0639496391488828 0.0772994132256106 0.0154810886191078 -0.0400758150514312 -0.0651760380619331 -0.0686604701786909 -0.0703050137661509
281.0 -0.0446689050781665 -0.0861947226230806 -0.0415258020519977 0.0654317874018501 -0.00157153373271541 -0.0638602960122142 0.0771808740119882 0.0155306324076711 -0.0400475694810148 -0.0651578248345021 -0.0686457347623392 -0.0702893838529614
282.0 -0.0446296019326193 -0.0860752569820246 -0.0414456470735528 0.0653524158413242 -0.00159197797995751 -0.0637604451040469 0.0770477009778246 0.015573022604374 -0.0400142029689058 -0.0651284100527607 -0.0686184014961576 -0.070260522668162
283.0 -0.0445830709286217 -0.08594184961389 -0.0413587745792484 0.065262453261653 -0.00161213875417654 -0.0636502842725026 0.0769004442455906 0.0156084792890845 -0.0399757256758795 -0.0650880855870109 -0.0685786148949776 -0.0702186879813381
284.0 -0.0445293255829155 -0.0857946178031084 -0.0412652901063876 0.0651619923441036 -0.00163200318465305 -0.0635299638904205 0.076739532579935 0.0156372613184072 -0.0399320943134079 -0.0650367590971513 -0.0685265949140392 -0.0701640610132819
285.0 -0.0444685184120861 -0.085633767486536 -0.0411652965056094 0.0650511778403052 -0.00165161316481837 -0.0633995128513404 0.0765657204246033 0.015659793069539 -0.0398832865962798 -0.0649746256427075 -0.0684623577489877 -0.0700966865382566
286.0 -0.0444007764520079 -0.0854595017205043 -0.0410587496863608 0.0649301813080432 -0.00167100966942306 -0.0632591401072819 0.076379590249504 0.0156762930145767 -0.0398291454938456 -0.0649016400834909 -0.068386105814885 -0.07001678168378
287.0 -0.0443261651015618 -0.0852719735590723 -0.0409458210279834 0.0647990910663632 -0.00169016042123485 -0.0631089047087216 0.0761816359913138 0.0156872617792343 -0.0397695901657221 -0.0648177791810439 -0.0682979433163005 -0.0699243611897673
288.0 -0.0442447665478702 -0.0850713588341691 -0.0408265502382987 0.0646580496211953 -0.00170909732308808 -0.0629489826133031 0.075972500086675 0.0156929085694728 -0.0397044819560425 -0.06472327356886 -0.068197923898413 -0.0698197237605819
289.0 -0.0441567686594702 -0.0848577480651971 -0.0407009577591473 0.0645072758935844 -0.0017278901700621 -0.0627793673664271 0.0757526588241627 0.0156935351633003 -0.0396339920806796 -0.0646181934591774 -0.0680863177749046 -0.0697030716905014
290.0 -0.0440622196329264 -0.084631381929564 -0.0405691511528399 0.0643468340661254 -0.00174653122568634 -0.0626002497226649 0.0755225514776233 0.0156895880341267 -0.0395578690471399 -0.0645026235170659 -0.0679632640535077 -0.0695745091219146
291.0 -0.0439612413188592 -0.0843923843295398 -0.0404311372737822 0.0641768056997887 -0.00176504561879228 -0.0624117278836904 0.0752826467848446 0.0156813455486807 -0.0394762259822788 -0.0643766073286451 -0.0678287858284133 -0.0694341867067097
292.0 -0.0438539449661076 -0.0841408675701656 -0.040286919650666 0.0639973783407644 -0.00178350936103127 -0.0622138524043539 0.0750336227292796 0.015669290647456 -0.039388927047085 -0.0642403128904086 -0.0676830890660989 -0.069282279040163
293.0 -0.043740387846286 -0.0838770350248759 -0.0401366456581648 0.063808697058391 -0.00180187910077572 -0.0620067948686959 0.0747755857443487 0.0156533808351489 -0.0392959508301264 -0.0640938266880261 -0.0675264253575052 -0.0691190700824804
294.0 -0.0436206964819079 -0.0836008943528957 -0.0399801970882633 0.0636107880159324 -0.00182023926292249 -0.0617905465705585 0.0745091728549781 0.0156342735059461 -0.0391971407505803 -0.0639371447255142 -0.0673587301458185 -0.0689444634213926
295.0 -0.0434949360075731 -0.0833126920940437 -0.0398177071641589 0.0634038102404846 -0.0018386090502687 -0.0615652000666759 0.0742347120056767 0.0156122585712216 -0.0390925617577177 -0.0637703619844347 -0.0671803098322983 -0.0687588460974871
296.0 -0.0433632369937104 -0.0830124581298759 -0.0396491474312862 0.0631878456002141 -0.00185703231208923 -0.0613308030058473 0.0739523720243763 0.0155873397211259 -0.0389821987684786 -0.063593672919984 -0.0669913706736338 -0.0685624173617349
297.0 -0.0432256181394522 -0.0827003048823288 -0.039474600279773 0.062962936241377 -0.00187549765871938 -0.0610874769566994 0.0736627735377371 0.0155599555296127 -0.0388659954986473 -0.0634070806002214 -0.0667919218133685 -0.0683551827510912
298.0 -0.0430822346293116 -0.0823763872656548 -0.0392941081245841 0.0627292979385759 -0.00189406230185493 -0.0608352359841793 0.0733660419708952 0.01553047733544 -0.0387438259340291 -0.0632106836433234 -0.066582016478017 -0.068137387712816
299.0 -0.042933117833909 -0.0820407365113423 -0.0391075957624949 0.0624868962158769 -0.00191274113863499 -0.0605741843677317 0.0730623874515936 0.0154992418642571 -0.0386158192791506 -0.0630045328185586 -0.0663619731850902 -0.0679091100853694
300.0 -0.0427783324224006 -0.0816935142556418 -0.0389151700364843 0.0622359074022888 -0.0019315612459461 -0.0603043272717222 0.0727520637130192 0.0154660343097025 -0.0384820905686887 -0.0627890424171517 -0.0661320044288009 -0.0676707295760094
301.0 -0.0426179116868817 -0.081334755190569 -0.0387168374306413 0.0619763252343936 -0.00195054626701478 -0.0600257643935193 0.0724352984173604 0.0154315203978476 -0.0383424079070711 -0.0625640860833561 -0.0658921710831697 -0.0674222475830219
302.0 -0.0424520183244165 -0.0809645742145161 -0.0385125527636566 0.0617082920458238 -0.00196973748514135 -0.0597385470579663 0.0721123058052889 0.015395751732574 -0.0381967974710533 -0.0623297928458649 -0.0656425530058922 -0.0671638103843337
303.0 -0.0422806390537744 -0.0805830789972704 -0.0383024383339831 0.0614318325914842 -0.00198908337419291 -0.059442750206781 0.0717831961692735 0.0153589974766903 -0.0380452242172365 -0.062086132090755 -0.0653833368663009 -0.0668955903234777
304.0 -0.0421038155570532 -0.0801903249679277 -0.0380864600629269 0.0611470566540784 -0.00200866415077866 -0.0591383639010793 0.0714480262885829 0.0153214447162931 -0.0378877671437748 -0.0618334276933033 -0.0651146187629632 -0.0666177731627276
305.0 -0.0419216663311835 -0.079786340661741 -0.0378646974452784 0.0608540207504447 -0.0020284822954343 -0.0588254800629802 0.0711069224322681 0.015283238283862 -0.0377245154387836 -0.0615717008284948 -0.0648366907648366 -0.0663305515724108
306.0 -0.0417342038597835 -0.0793713348462816 -0.0376371428861043 0.0605527539758131 -0.00204852938128346 -0.0585041945339389 0.0707599010850845 0.0152445012594447 -0.0375554179781552 -0.0613012049941475 -0.0645496547115294 -0.066034073259805
307.0 -0.0415414345694998 -0.0789452694383509 -0.0374038409948446 0.0602433683473144 -0.00206881077398827 -0.0581745566537497 0.0704070192528498 0.0152053940441571 -0.037380399923512 -0.0610218280957602 -0.0642535145113639 -0.0657283657462019
308.0 -0.0413434588075312 -0.0785083189099148 -0.0371648632560842 0.0599258730127243 -0.00208930982808192 -0.0578365918228545 0.0700482092438036 0.0151659506941605 -0.0371997623830985 -0.0607338035425265 -0.0639486118118894 -0.0654137343158988
309.0 -0.0411402797138979 -0.0780605245608978 -0.0369202464705452 0.0596004182394563 -0.00211003253017958 -0.0574903616369236 0.0696835817678747 0.0151264313385847 -0.0370133692532055 -0.0604372514949931 -0.0636349284180108 -0.0650901905731255
310.0 -0.0409319474244622 -0.0776020046914855 -0.0366700095834747 0.0592669843474166 -0.00213098681416506 -0.0571359948445221 0.0693129997418026 0.0150868243354902 -0.0368212475054929 -0.0601322823319384 -0.0633126975595768 -0.0647580316079741
311.0 -0.0407185362688472 -0.0771328202033704 -0.0364142593867272 0.0589256582438869 -0.00215214280090048 -0.0567735092068753 0.0689363925942475 0.0150472207302524 -0.0366235080638636 -0.059819098435144 -0.0629819422660859 -0.0644173133256053
312.0 -0.0405000359930583 -0.0766530994878537 -0.036153050857433 0.0585765331886522 -0.00217349966422246 -0.0564030594256559 0.0685537725139923 0.0150075703548928 -0.0364202565520129 -0.0594977554726863 -0.0626429169900717 -0.0640682100644334
313.0 -0.0402764413182735 -0.076162957160959 -0.0358865093368905 0.0582197057118066 -0.00219497934784071 -0.0560247251422748 0.0681647576210197 0.0149680899794156 -0.036211498826335 -0.0591683791415672 -0.0622958012446868 -0.0637107630556299
314.0 -0.0400478465656416 -0.0756625007471088 -0.0356146508322422 0.0578551769883002 -0.00221659503917354 -0.0556385958760003 0.0677695394759337 0.0149286000822454 -0.0359972864210992 -0.0588311311901279 -0.0619406874444511 -0.0633452846414261
315.0 -0.0398142517729335 -0.0751518826392838 -0.0353376291421479 0.0574830446617249 -0.00223831471170025 -0.0552447662312844 0.0673678285404785 0.014889153802607 -0.0357778399439173 -0.0584861434068095 -0.0615777687230308 -0.0629718870982414
316.0 -0.039575705478954 -0.074631181290366 -0.0350554749237816 0.0571034075189869 -0.00226010247021899 -0.0548433334304646 0.0669595242778672 0.0148497299775529 -0.0355531274069195 -0.058133483637145 -0.0612070959875134 -0.0625906767460551
317.0 -0.0393321841524303 -0.074100582646481 -0.0347683980370929 0.0567163649355776 -0.00228187676048208 -0.0544344930823026 0.0665444778923985 0.0148103177122627 -0.0353232779006258 -0.0577734779246093 -0.0608289380419933 -0.062201902396513
318.0 -0.0390837727180328 -0.0735602309532445 -0.0344764579999669 0.056321968070636 -0.00230362956139295 -0.0540183458874407 0.0661224672250129 0.0147708628786527 -0.0350885034397423 -0.0574060515216692 -0.0604432877104586 -0.0618055951007227
319.0 -0.0388304663761651 -0.0730102004692223 -0.0341797339719517 0.0559202917805743 -0.00232533733589572 -0.0535949436872139 0.0656932808680847 0.0147312405725191 -0.0348487190933561 -0.0570315541026971 -0.0600503838954525 -0.0614019164020732
320.0 -0.0385722626559644 -0.0724507235006398 -0.0338784607823295 0.0555114716406725 -0.00234688122437129 -0.0531645557666736 0.0652569555456958 0.0146914835310986 -0.0346041722546502 -0.0566500686435773 -0.0596503981048934 -0.060991046502855
321.0 -0.0383092573241347 -0.0718819681595884 -0.0335727593227176 0.0550956259653127 -0.00236824855648716 -0.0527273207554874 0.0648130734893976 0.0146513660109297 -0.0343549902832184 -0.0562617348995462 -0.0592434671515151 -0.0605731266917205
322.0 -0.0380414511626282 -0.0713041180299686 -0.0332626918288941 0.0546727671441356 -0.002389374586243 -0.0522833585404556 0.0643617592648401 0.0146110143946344 -0.0341011902252344 -0.0558665762981338 -0.0588296614673885 -0.0601481811856122
323.0 -0.0377688930933588 -0.0707173161413073 -0.0329484844176762 0.054243095632848 -0.00241021142617551 -0.0518328763981502 0.0639025432862561 0.0145699600318342 -0.033843023452978 -0.0554648960161428 -0.0584092599081948 -0.0597165620870873
324.0 -0.0374915597822807 -0.0701218787229207 -0.0326303020148084 0.0538067146273303 -0.00243063253285598 -0.0513760780745971 0.063435329365968 0.014528301293836 -0.0335805223357871 -0.0550568501309314 -0.057982308991903 -0.0592783536220756
325.0 -0.0372095847749583 -0.0695178715329642 -0.0323082780444795 0.0533637257728424 -0.00245066009576563 -0.0509130684595543 0.0629601650246638 0.0144858462260174 -0.0333138976150445 -0.0546425675114824 -0.0575488811856213 -0.0588335991506245
326.0 -0.0369229397827823 -0.0689055710209573 -0.0319826267523959 0.0529142299163746 -0.0024701551281752 -0.0504440956283806 0.0624766865714173 0.0144423989701907 -0.0330432577817626 -0.0542222600584531 -0.0571093534314013 -0.0583826121109243
327.0 -0.0366316587619559 -0.068285216543602 -0.0316535554723383 0.0524584245326829 -0.00248906548657106 -0.0499693843305785 0.0619849008532527 0.0143979072166672 -0.0327687072071688 -0.0537959398209378 -0.0566636771846229 -0.0579253597855212
328.0 -0.0363358562320698 -0.0676570283619801 -0.031321170941064 0.0519964112830355 -0.00250734006745868 -0.0494890987879901 0.0614846658369815 0.0143521499586444 -0.0324903966609591 -0.0533638070793275 -0.0562119730122852 -0.0574620679280606
329.0 -0.036035494109822 -0.0670212169066265 -0.0309857221847788 0.051528339542024 -0.00252488948726396 -0.0490034691011509 0.0609758113642892 0.0143049163816858 -0.0322085978377782 -0.0529262075360496 -0.0557545455798513 -0.0569928527579639
330.0 -0.0357306498284052 -0.0663780845859673 -0.0306474344424873 0.0510543832473642 -0.00254160465558288 -0.0485127592853692 0.0604581527978667 0.0142560494378104 -0.0319233535690475 -0.0524831736028457 -0.0552915517310512 -0.0565179196638133
331.0 -0.0354214117702825 -0.0657278356011553 -0.0303064236686704 0.0505746319433052 -0.00255749248714541 -0.0480171537767753 0.0599318376820458 0.0142055167970727 -0.0316348314627372 -0.0520347704848478 -0.0548229266519606 -0.056037277342245
332.0 -0.0351078254353114 -0.0650708176730515 -0.0299629921542372 0.0500893258052397 -0.00257241583555462 -0.0475168930823496 0.0593966993767925 0.0141529621802892 -0.0313431663238629 -0.0515812258275156 -0.0543489766114771 -0.0555512213865035
333.0 -0.0347899142471099 -0.0644072098105799 -0.0296172955204822 0.049598588476997 -0.00258632350471173 -0.0470122465747048 0.0588525550560308 0.0140981536532965 -0.0310486216283496 -0.0511227053435484 -0.0538698107594288 -0.0550598554505224
334.0 -0.0344678358223865 -0.0637373467654808 -0.0292695109209639 0.0491025806499315 -0.00259915032304942 -0.046503449967306 0.0582996502352471 0.0140411658923431 -0.0307512359765694 -0.0506594399009846 -0.053385533806206 -0.0545632328960102
335.0 -0.0341415742645113 -0.0630614979088121 -0.0289199236329079 0.0486015306070613 -0.00261080936853172 -0.0459907216456735 0.0577378201912247 0.0139816491863592 -0.0304511747983212 -0.0501914513134475 -0.0528963452154677 -0.0540615752713562
336.0 -0.0338112669478777 -0.0623799959919588 -0.0285687290382159 0.0480956043893049 -0.00262125104120225 -0.0454743681135109 0.0571672227201978 0.0139195205405683 -0.030148571777284 -0.0497189934075304 -0.0524022991530221 -0.0535549481117288
337.0 -0.0334769360743425 -0.061693060836823 -0.0282161732788212 0.0475849845143097 -0.00263037702764596 -0.0449545956802464 0.0565878420179574 0.0138545431512879 -0.0298436412927516 -0.0492421968547878 -0.051903666100574 -0.0530435792324923
338.0 -0.0331386901122836 -0.0610010482059273 -0.0278623830701663 0.0470698619820488 -0.00263816097516768 -0.044431704632734 0.0559998155064758 0.0137866921491871 -0.0295364451891961 -0.0487612259644923 -0.051400439745756 -0.0525275373950942
339.0 -0.0327966819406364 -0.0603042382868148 -0.027507569204252 0.046550480678611 -0.00264456020561524 -0.0439058980799279 0.0554031168927437 0.0137155665764948 -0.0292273064207081 -0.048276262362829 -0.0508929079550812 -0.0520070520758079
340.0 -0.0324509902624552 -0.0596029693992661 -0.0271520342755896 0.0460270146774753 -0.0026494702650907 -0.043377523180418 0.0547979267183917 0.0136411540950247 -0.0289163427267599 -0.0477874965908406 -0.0503812189240727 -0.0514822899298474
341.0 -0.0321017041139359 -0.0588975612705496 -0.0267958855424099 0.0454996506315029 -0.00265289075135503 -0.0428467586536676 0.054184483485487 0.0135633998336395 -0.0286035176816651 -0.0472949782209149 -0.0498653519060141 -0.0509532397136635
342.0 -0.031748917850842 -0.0581883240563891 -0.0264394208187366 0.0449686301888615 -0.00265474382635689 -0.0423138905830407 0.05356295849578 0.0134821299862463 -0.0282890066106878 -0.0467989753700349 -0.0493455873365233 -0.0504201382358051
343.0 -0.0313927770868447 -0.0574755629850163 -0.0260827934211351 0.0444341747902942 -0.00265498941856935 -0.0417792118041639 0.0529334399365081 0.0133972550763564 -0.0279730453304758 -0.046299577547179 -0.0488220695856511 -0.0498831074068288
344.0 -0.0310334053041536 -0.0567595807479584 -0.0257261793166746 0.0438964954736329 -0.00265359234310589 -0.0412429215900517 0.052296409881266 0.0133085834828205 -0.0276558037603088 -0.0457969763902224 -0.0482949214953835 -0.0493423070257894
345.0 -0.0306709145915606 -0.0560407757695508 -0.0253698631717684 0.0433558464405839 -0.00265051022688173 -0.0407053166051677 0.0516519224271848 0.0132161621159249 -0.0273373208563591 -0.0452912705555695 -0.0477642548249213 -0.048797964916343
346.0 -0.0303054596918131 -0.0553193531611912 -0.0250139430151479 0.0428124070751727 -0.00264575036757771 -0.040166646612996 0.0510001995012543 0.0131196754898648 -0.0270178592703138 -0.0447827049096089 -0.0472302726666961 -0.0482501498442058
347.0 -0.0299371687868279 -0.05459575815106 -0.0246586148707115 0.0422664638028837 -0.00263927285466257 -0.039627185751457 0.0503416464690693 0.0130192523066893 -0.0266974571782223 -0.0442715025498448 -0.0466931280933517 -0.0476990912878488
348.0 -0.0295662534235561 -0.0538702684648339 -0.0243040281721765 0.0417182611161094 -0.00263109110549146 -0.0390871721872264 0.0496767631315925 0.012914958823037 -0.026376182752719 -0.0437575842508594 -0.0461529484270246 -0.047144810345537
349.0 -0.0291927739883621 -0.0531432211549085 -0.0239504539264172 0.0411679734004579 -0.00262114410030059 -0.0385468740881133 0.0490057097508377 0.012806635070809 -0.0260541681282326 -0.0432412488624213 -0.0456098962526856 -0.0465876089949529
350.0 -0.0288169556459726 -0.0524149352960945 -0.0235980316495067 0.0406159330275567 -0.00260945379702113 -0.038006526547342 0.0483289084662357 0.0126942472167645 -0.0257315783671326 -0.0427227472730239 -0.0450642008281984 -0.0460276426961398
351.0 -0.0284389143126301 -0.0516857207082263 -0.0232468331652123 0.0400623111044467 -0.00259602179586456 -0.0374662991117689 0.0476465765978669 0.0125776808046144 -0.0254086440026634 -0.0422021601223092 -0.0445159801769783 -0.045465040000283
352.0 -0.0280588552208381 -0.0509558824466175 -0.0228970410069491 0.0395073897955676 -0.00258089258805405 -0.0369264731426407 0.0469595052945402 0.0124573135857694 -0.0250852411180141 -0.0416795289240807 -0.0439652465388746 -0.0448998670863551
353.0 -0.0276769325449628 -0.0502257716331361 -0.0225488461828076 0.0389513628803387 -0.00256405026246794 -0.0363872905252483 0.0462677622092049 0.0123328063161122 -0.0247616455555379 -0.0411552146854307 -0.0434123943699206 -0.0443324976592354
354.0 -0.0272933712130349 -0.0494957145856467 -0.0222023470249749 0.0383945727144456 -0.00254551088763903 -0.0358490213417671 0.0455719644023531 0.0122042754667606 -0.0244379508012834 -0.0406293062164004 -0.0428575296998865 -0.043763027065867
355.0 -0.0269083355388039 -0.0487660248527546 -0.0218577397135707 0.037837195544786 -0.00252530214349485 -0.0353118531515897 0.044872623618115 0.0120719750752319 -0.0241142049824667 -0.0401018977563274 -0.0423008041522966 -0.0431916014301865
356.0 -0.0265220071507597 -0.0480370094093683 -0.0215150282046555 0.0372795161818309 -0.00250348679919928 -0.0347760280695718 0.044170148863724 0.0119358418442252 -0.0237905784333668 -0.0395733289363861 -0.0417424898613516 -0.0426184900551719
357.0 -0.0261345765911314 -0.0473090203655757 -0.0211744086122752 0.0367217782865537 -0.00248007776097555 -0.0342417192573505 0.0434648962568013 0.0117959402266052 -0.0234672558818807 -0.0390436775621584 -0.0411826784041196 -0.0420438315797194
358.0 -0.0257462389909979 -0.0465822389899029 -0.0208359818971954 0.0361642043359026 -0.00245511078464602 -0.0337091128983649 0.0427573887644977 0.0116523519224791 -0.0231440413109514 -0.0385129836884557 -0.0406215139637815 -0.0414677944147404
359.0 -0.0253571918438076 -0.045857098236068 -0.0204998970733845 0.0356071514592349 -0.00242863338915288 -0.0331784989184811 0.0420482352491697 0.0115053130690251 -0.0228212704839844 -0.037981704609992 -0.0400593133635615 -0.0408906593366898
360.0 -0.0249676338591716 -0.0451338695107756 -0.020166230854187 0.0350507549896688 -0.00240069914916771 -0.0326500750927504 0.0413378947151347 0.0113548481924537 -0.0224990192154092 -0.0374497846288519 -0.0394961426673632 -0.0403125708910836
361.0 -0.0245778128921495 -0.0444128380940142 -0.0198350227321237 0.0344953271943601 -0.00237139386850634 -0.0321239432370349 0.0406268945769132 0.0112011154770951 -0.0221772780156192 -0.0369175347069127 -0.0389323270014669 -0.0397337490489585
362.0 -0.0241879050594722 -0.0436943449271878 -0.0195063900769171 0.0339411258691589 -0.00234076171952228 -0.0316003983635922 0.0399156519089555 0.0110441963572548 -0.0218563331154648 -0.0363851149293387 -0.0383680822623227 -0.0391545011302521
363.0 -0.0237981465852401 -0.042978565529113 -0.0191803933112512 0.0333883322483788 -0.0023088594059778 -0.0310794953079003 0.0392047695787383 0.0108843753526347 -0.0215360892716189 -0.0358526562283569 -0.0378034710754444 -0.0385749368258749
364.0 -0.0234087075984915 -0.0422658813741601 -0.0188571605798309 0.0328372822294044 -0.0022757791945007 -0.0305615048964145 0.0384947035043767 0.010721750416438 -0.0212166915296475 -0.0353204200861561 -0.0372388167970078 -0.0379952581634899
365.0 -0.0230198212408246 -0.0415565373671363 -0.01853670933301 0.0322881487343589 -0.00224154917679738 -0.0300466150716872 0.0377859795115943 0.0105565175336808 -0.0208982630792964 -0.0347885896348004 -0.0366742858928414 -0.0374158117450309
366.0 -0.022631704573746 -0.0408507566253237 -0.0182190970737025 0.031741214862098 -0.00220629540918621 -0.029534922587747 0.0370791108956389 0.0103888746374237 -0.020580818820075 -0.0342573076712083 -0.0361101581380593 -0.0368366789646716
367.0 -0.0222445178612686 -0.0401489451270871 -0.0179044019241365 0.0311967233924447 -0.00217005852658653 -0.0290266713316274 0.036374555981629 0.010218972144233 -0.0202645604997861 -0.0337267932662276 -0.0355466260820407 -0.0362581928408137
368.0 -0.0218585376857719 -0.039451263353327 -0.017592712621495 0.0306548963487253 -0.00213292737521895 -0.0285219868579338 0.0356728418344292 0.0100470087879196 -0.0199494949407697 -0.0331973047570127 -0.0349838858891582 -0.0356805733328216
369.0 -0.0214739549529949 -0.0387579879980779 -0.0172840263288877 0.0301159935880495 -0.00209498165723845 -0.0280209823223407 0.0349744338678446 0.00987322273212955 -0.0196356741745702 -0.0326689266178239 -0.0344221841041665 -0.035104079235264
370.0 -0.0210910135005141 -0.0380693585439197 -0.0169783415858653 0.0295801974058801 -0.00205632062705652 -0.0275238615361936 0.0342798627960411 0.00969780451213586 -0.0193232705454398 -0.0321419449333514 -0.033861744688603 -0.0345288922966009
371.0 -0.0207098388574741 -0.0373856923554573 -0.0166758517180193 0.0290477472071683 -0.00201698082567135 -0.0270307779422375 0.0335894988727875 0.00952089103220446 -0.0190124212966623 -0.0316165555011843 -0.0333028770167408 -0.0339553486789029
372.0 -0.0203306897245221 -0.0367071528140202 -0.0163764621731613 0.0285189117971951 -0.0019770926591508 -0.0265418105337795 0.0329038238232538 0.00934281962800794 -0.0187030515238784 -0.0310929561578947 -0.0327456918370754 -0.0333836214405553
373.0 -0.019953747801767 -0.0360340181068026 -0.0160802698332996 0.0279938780779994 -0.00193672326137309 -0.0260571455351597 0.0322232797200805 0.0091637251466212 -0.0183954137820051 -0.0305713457897361 -0.0321905372798012 -0.0328139452312024
374.0 -0.0195792036683076 -0.0353665284850725 -0.0157872760545522 0.0274728393066671 -0.00189595086071244 -0.0255768788158603 0.0315482397031721 0.0089838031585175 -0.0180894925298495 -0.0300519238233447 -0.0316375925645703 -0.032246586408063
375.0 -0.0192073009935638 -0.0347048561510802 -0.0154975300544172 0.0269560405312628 -0.00185486424899655 -0.0251011567688241 0.0308792840222198 0.00880331445851622 -0.0177853768054262 -0.0295349384829091 -0.0310871440322466 -0.0316818276516178
376.0 -0.0188381652201123 -0.0340492353137262 -0.0152110571703778 0.0264437049428186 -0.00181352854457055 -0.0246301517967951 0.0302167599128379 0.00862257767902755 -0.0174831609654351 -0.0290205175558302 -0.0305393390929394 -0.0311198630069476
377.0 -0.0184720064846746 -0.0333998835839715 -0.0149278704463323 0.025935947441506 -0.00177206945755937 -0.0241638556150892 0.0295607976147827 0.00844156277661501 -0.017182990624029 -0.0285089209053198 -0.0299944477117563 -0.0305609864471419
378.0 -0.0181090300056997 -0.0327570585474116 -0.0146480251167232 0.0254330212561088 -0.00173050318497972 -0.0237025065554981 0.0289120464086349 0.00826066184734982 -0.0168848922249458 -0.0280003793493427 -0.0294527059071827 -0.0300054463501484
379.0 -0.0177493899503184 -0.0321208928107594 -0.0143715010972348 0.0249351052697855 -0.00168893510387956 -0.0232461787933935 0.0282706949901124 0.00807993603865439 -0.016588976420311 -0.0274950602338241 -0.0289144292604854 -0.0294534191018843
380.0 -0.0173932142041165 -0.0314916001988794 -0.0140983850870531 0.024442388611451 -0.00164741946303755 -0.0227949590340912 0.0276371801364986 0.00789969824190147 -0.0162953001745469 -0.0269931467482374 -0.02837978023492 -0.0289051895843887
381.0 -0.017040714161492 -0.0308693393095404 -0.0138286246807536 0.0239550171652411 -0.0016060618210482 -0.022348940433403 0.0270116781841739 0.00772009497976402 -0.0160039898520227 -0.026494878757776 -0.0278489880256904 -0.0283610014954786
382.0 -0.0166920471689938 -0.0302542888286088 -0.0135622414190486 0.0234731630719624 -0.00156490196434344 -0.021908267987257 0.0263946195477562 0.00754139576049202 -0.0157151105059245 -0.0260004282659365 -0.0273222191433143 -0.0278210773310696
383.0 -0.0163473427489924 -0.0296466377834321 -0.0132992949105947 0.022996963470164 -0.00152400889459311 -0.0214729678211246 0.0257861772880848 0.00736362773412905 -0.0154287441454088 -0.0255100293792999 -0.0267997533859121 -0.0272856286722033
384.0 -0.0160067646191529 -0.0290465320058587 -0.0130398158423096 0.0225266345177287 -0.00148346180172246 -0.0210431989426461 0.0251865860560674 0.00718701351093959 -0.0151450300280342 -0.0250238511367922 -0.0262819288727869 -0.0267549100002339
385.0 -0.0156703970623773 -0.0284540950904174 -0.0127837714926551 0.0220622389747578 -0.00144330145321179 -0.020618946171252 0.0245961607289335 0.00701184721374459 -0.0148639428057629 -0.0245420290800944 -0.0257687741118395 -0.0262291493625113
386.0 -0.0153383805067627 -0.0278695362224426 -0.0125311935357338 0.0216039547086332 -0.00140360220771688 -0.0202003472499683 0.0240150634074955 0.00683820262787836 -0.0145856149873432 -0.0240648270643715 -0.02526054637592 -0.0257085126786306
387.0 -0.0150108842843125 -0.0272929630918833 -0.0122821467969366 0.0211519218059814 -0.00136437323393357 -0.0197875701285062 0.0234434260616491 0.00666620022141531 -0.0143102118278467 -0.0235924294433109 -0.0247575236688181 -0.0251932794425014
388.0 -0.0146879470488655 -0.0267244311382142 -0.0120365190907093 0.0207062123842943 -0.0013257356984293 -0.0193804586716516 0.0228815592271417 0.00649608153372328 -0.0140376243242014 -0.0231249311233708 -0.0242597520699439 -0.0246834965006567
389.0 -0.0143697342577455 -0.026164162979472 -0.011794446740651 0.0202669606088382 -0.00128766464368023 -0.0189792721355176 0.0223294772116828 0.00632790298371046 -0.0137680389577289 -0.0226625265210833 -0.0237675949367929 -0.0241795276055121
390.0 -0.0140563310894415 -0.0256122247014867 -0.0115559028883027 0.0198342840681109 -0.00125022000043352 -0.0185840469480901 0.0217873329390531 0.00616177609910392 -0.0135016002495668 -0.0222054612814035 -0.0232811422894088 -0.0236815114997789
391.0 -0.013747829913745 -0.0250686503256662 -0.011320873706758 0.0194082432974237 -0.00121348114078135 -0.0181947533433692 0.0212553992128339 0.0059979281128515 -0.0132382370420414 -0.0217537648252061 -0.0228005375094064 -0.0231895196090925
392.0 -0.0134442782832157 -0.0245336029245293 -0.0110893520778367 0.0189889179801021 -0.00117744525856066 -0.017811473036348 0.0207335738772541 0.00583645659818487 -0.0129781067801672 -0.0213076463759859 -0.0223259514492788 -0.0227038798199876
393.0 -0.0131457491975755 -0.0240072149682125 -0.0108614798951346 0.0185764461763522 -0.00114210605720475 -0.0174343451331479 0.0202219984193094 0.00567732445157996 -0.0127212905176451 -0.020867262162697 -0.0218576176230628 -0.0222247124111906
394.0 -0.0128522802375487 -0.0234894090951093 -0.0106371361289423 0.0181708504410915 -0.00110756703779293 -0.0170632956884101 0.0197207456774105 0.0055207551687055 -0.0124677814620792 -0.0204327411323649 -0.0213956077259189 -0.0217520793029593
395.0 -0.0125639877886526 -0.0229802910370499 -0.0104163069917512 0.017772142385736 -0.00107382811204708 -0.0166983351539509 0.0192299501879576 0.00536688806624198 -0.0122176246360604 -0.0200041011483833 -0.0209400557056946 -0.021286109410959
396.0 -0.0122808832475362 -0.0224800607835375 -0.0101991794631038 0.0173804735459969 -0.00104084071516101 -0.0163396144685124 0.01874943861435 0.00521563960335585 -0.0119709887755871 -0.0195816425231021 -0.0204911760776793 -0.0208270631792393
397.0 -0.0120030210006276 -0.0219886272130076 -0.00998561205640072 0.0169958248947082 -0.00100870259964268 -0.0159871142976047 0.0182793157992369 0.00506709292302758 -0.0117278637083106 -0.0191654228205206 -0.0200490307563565 -0.0203750261667036
398.0 -0.0117304290464077 -0.0215059434154958 -0.00977555134117934 0.0166181866365629 -0.000977430610750273 -0.0156407276489886 0.0178196842356449 0.0049214752013638 -0.011488195678081 -0.0187553746362339 -0.0196137001350587 -0.0199299939002629
399.0 -0.0114631217986741 -0.0210322278382526 -0.00956916388853578 0.0162476992869546 -0.000946967919394432 -0.0153006905585351 0.0173703540908396 0.00477871416457374 -0.0112521996076883 -0.0183518029055435 -0.0191853226395081 -0.0194921581545825
400.0 -0.0112011066777415 -0.0205673988618801 -0.009366331669024 0.0158842896260267 -0.000917381823122809 -0.0149668819422207 0.016931324676435 0.0046388356808155 -0.0110198405826803 -0.0179546705336538 -0.0187640180515122 -0.0190616176564873
401.0 -0.0109443875036359 -0.0201115115069103 -0.00916712007066604 0.0155279684790889 -0.000888640010426707 -0.0146393365039354 0.0165026441574052 0.00450195010590251 -0.0107911976675934 -0.0175641525013667 -0.0183497995161522 -0.0186384232311787
402.0 -0.0106930147622908 -0.0196644485401847 -0.00897145601304195 0.0151787414190796 -0.00086077388130114 -0.0143179750707437 0.0160841917713073 0.00436806088041769 -0.010566214526637 -0.0171801933318388 -0.0179426738005999 -0.0182226010437955
403.0 -0.010446917405468 -0.0192263436867635 -0.00877944258002805 0.0148366598343433 -0.000833741862626003 -0.014002902441992 0.0156758568295025 0.00423714066397909 -0.0103450562352257 -0.0168029585426763 -0.0175428869854389 -0.0178143101223988
404.0 -0.0102061316361197 -0.0187971202310833 -0.00859099213371935 0.0145016531412085 -0.000807571556846692 -0.0136940755303342 0.0152775823487714 0.00410927727223926 -0.0101276767729673 -0.0164324848240419 -0.0171503716770883 -0.0174135352969321
405.0 -0.00997063727626951 -0.0183766901601209 -0.00840606926143356 0.0141736850027494 -0.000782283966589143 -0.0133913751154089 0.0148892419550678 0.00398439946679394 -0.00991410581956523 -0.0160686940255463 -0.0167651417002613 -0.0170203172771132
406.0 -0.00974038512267782 -0.0179651537222891 -0.00822476732702337 0.0138527852318442 -0.000757806936033878 -0.0130949338992512 0.0145108676289442 0.00386261613173693 -0.00970434409851292 -0.0157117885116689 -0.016387349730089 -0.0166347255399255
407.0 -0.00951534014133009 -0.0175623199293119 -0.0080469888367174 0.013538823618273 -0.00073417609794338 -0.0128046261202777 0.0141421361986732 0.00374377953998423 -0.00949842594582139 -0.0153616783834988 -0.0160169288066257 -0.0162566988138444
408.0 -0.00929548914842745 -0.0171682845366429 -0.00787278063881839 0.0132318786870618 -0.000711352543446923 -0.0125205325937008 0.0137829783321015 0.0036279980142559 -0.00929636903788885 -0.0150184629185813 -0.0156539414971829 -0.0158863025946171
409.0 -0.00908081080105783 -0.016782854243002 -0.00770206010854024 0.0129318453053161 -0.000689372524466542 -0.0122424523269086 0.0134335038946732 0.00351519146557323 -0.00909819217851023 -0.014682047667552 -0.015298274453733 -0.0155235220805134
410.0 -0.00887120677690541 -0.0164060750937336 -0.00753488660077047 0.012638669349949 -0.000668157179809958 -0.0119704759250586 0.0130933327715813 0.00340543025814561 -0.0089038322689594 -0.0143525295653539 -0.0149500148820659 -0.015168398170868
411.0 -0.00866663131094881 -0.0160378252351952 -0.00737119848500087 0.0123522259193291 -0.000647714915784391 -0.0117045044741853 0.0127622207579307 0.00329856624235007 -0.00871335871626447 -0.0140298129566357 -0.0146091591569204 -0.0148208063628397
412.0 -0.00846705599112615 -0.015678041936352 -0.00721098344119545 0.0120725477520172 -0.000628036959783376 -0.0114444870527466 0.0124402847322789 0.00319465900402083 -0.00852672962063161 -0.0137139456361306 -0.0142756568926289 -0.0144807796002894
413.0 -0.00827245648685414 -0.0153266929028659 -0.00705422542304883 0.0117995546633138 -0.000609115399257761 -0.0111904459653665 0.0121271967095748 0.00309359851218248 -0.00834398648694686 -0.0134049036895129 -0.0139494821503271 -0.0141483348429275
414.0 -0.00808272323387269 -0.0149836159513246 -0.00690086279852423 0.0115331568542625 -0.000590932575355789 -0.0109421986171682 0.0118228363603753 0.00299538149348081 -0.00816508275508711 -0.0131026262861749 -0.0136305730571616 -0.0138233352636413
415.0 -0.00789777556811951 -0.0146486305499496 -0.00675081531969467 0.0112731625377055 -0.000573481337961973 -0.0106996995265004 0.0115271902576729 0.00290011785730027 -0.00798989256494686 -0.0128069850714101 -0.0133188007218715 -0.0135057104229574
416.0 -0.00771757681515515 -0.0143218378372664 -0.00660422119604604 0.0110196670578272 -0.000556678919594197 -0.0104630223178384 0.0112397662955578 0.00280746147500679 -0.00781862283135477 -0.0125181080448346 -0.0130143413872111 -0.0131955210969045
417.0 -0.00754204501957541 -0.0140030472832345 -0.00646097690900987 0.0107725254209834 -0.00054053365635108 -0.0102320059641567 0.0109605537315588 0.00271752527352496 -0.00765116659020443 -0.0122359155433896 -0.0127169946679179 -0.0128926530152907
418.0 -0.00737114284214975 -0.0136921608017701 -0.00632098064720462 0.0105316144641582 -0.00052508234768078 -0.0100065578638403 0.0106895470353828 0.00263029460931808 -0.00748742996020134 -0.0119603180366626 -0.0124267059237363 -0.0125969988317299
419.0 -0.00720472976200317 -0.0133889823394492 -0.00618424792458363 0.0102968222628828 -0.000510241077131361 -0.00978661578917698 0.0104264037244792 0.00254577649960782 -0.00732735975871829 -0.0116911723951043 -0.0121433985061531 -0.0123085518029759
420.0 -0.00704274799389801 -0.0130934594860746 -0.00605073335653328 0.0100680960496603 -0.000496007885432414 -0.00957210888945442 0.0101708698556631 0.00246373681204043 -0.00717102079378258 -0.0114285019734268 -0.0118669844366631 -0.0120271143801218
421.0 -0.00688511927026406 -0.0128054682218213 -0.00592037476327601 0.00984529706491765 -0.000482374000841381 -0.00936293276316832 0.00992290203220613 0.00238427335090223 -0.00701830087090122 -0.0111721732367051 -0.0115973699040089 -0.0117526819024465
422.0 -0.00673179844651932 -0.0125249447004897 -0.00579315954200843 0.00962837813401861 -0.000469320351801044 -0.00915906277537222 0.00968243909770658 0.00230733457580956 -0.00686920045486329 -0.0109222144790255 -0.0113345066135546 -0.0114851549318608
423.0 -0.00658266524322393 -0.0122517590149277 -0.00566911031634276 0.00941722278437445 -0.000456776470951615 -0.00896044742835 0.00944902259808898 0.00223270957987483 -0.00672374404462525 -0.0106784947082844 -0.0110783211835528 -0.0112244822769999
424.0 -0.00643765288781655 -0.0119857472493817 -0.00554808832304313 0.00921169827611103 -0.000444782741834238 -0.00876691465266763 0.00922251355698162 0.00216040623334681 -0.0065818423617505 -0.0104409464889088 -0.01082872731725 -0.0109705405455017
425.0 -0.00629664452244319 -0.0117266794608927 -0.00543003182977975 0.00901166349485161 -0.00043330803843905 -0.00857835645813533 0.00900300054234717 0.00209054988628008 -0.00644333299866441 -0.0102093652868737 -0.0105854865110852 -0.0107231206561082
426.0 -0.00615955572825276 -0.0114745343120741 -0.00531495272377824 0.00881703609014 -0.000422303343732143 -0.00839473180652034 0.00879012643885107 0.00202293336126855 -0.0063082390895004 -0.00998373314160237 -0.0103486215399791 -0.0104821634918099
427.0 -0.0060263381939445 -0.0112291552602225 -0.00520282316110639 0.00862775425969032 -0.000411758464432405 -0.00821599531139781 0.0085835861028336 0.00195736751914563 -0.00617661621128246 -0.009764016547195 -0.0101180228302063 -0.0102476531746
428.0 -0.00589692338112754 -0.0109905102355126 -0.00509357543623362 0.00844371340825022 -0.000401674945683898 -0.00804203627269764 0.00838336800246624 0.00189401699440237 -0.00604833771346597 -0.00955009636394374 -0.00989358060121591 -0.0100194359722989
429.0 -0.00577120807869559 -0.0107583401313925 -0.0049871407303675 0.00826478205853834 -0.000392034660386248 -0.00787274433001928 0.00818938857011374 0.00183268027770391 -0.00592337235909216 -0.00934185303473252 -0.00967517526210957 -0.00979737451936449
430.0 -0.00564902755838248 -0.0105324630387913 -0.00488342539192119 0.00809074211519266 -0.000382801590944144 -0.00770794137072211 0.00800137189169439 0.00177344285625941 -0.0058015391013505 -0.00913906974884069 -0.00946258998477535 -0.00958127194880066
431.0 -0.00553031642476666 -0.0103127367903952 -0.00478241032007453 0.00792152496874921 -0.000373955254494629 -0.007547569664831 0.00781908373808914 0.00171619347747897 -0.00568286603458452 -0.00894174648524994 -0.00925579562762577 -0.00937107543157796
432.0 -0.0054150798273547 -0.0100991706804732 -0.00468409053353906 0.00775712441023291 -0.000365495295394389 -0.00739162860420135 0.00764236471116052 0.00166073901360922 -0.00556740158549413 -0.00874983956571589 -0.00905472866902505 -0.00916671895548592
433.0 -0.00530319911874535 -0.00989165304731052 -0.00458845376404361 0.00759742564869552 -0.000357372526002305 -0.00724005480058834 0.0074711036401113 0.00160710619158297 -0.00545503968218213 -0.00856323431761466 -0.00885926422084447 -0.00896808605410406
434.0 -0.00519458895881715 -0.00968994688510938 -0.00449535784159547 0.00744226769836616 -0.000349614995502031 -0.00709265550742968 0.00730520932995159 0.00155529906672427 -0.00534566749492498 -0.00838175040834551 -0.00866925065502803 -0.00877501487911765
435.0 -0.00508912293101736 -0.00949389621821647 -0.00440477324359667 0.00729150945950769 -0.000342175524205527 -0.00694933634949766 0.00714461057323697 0.00150534883835593 -0.00523919297470693 -0.00820528044572353 -0.00848453713344209 -0.00858735903481047
436.0 -0.00498669228787157 -0.00930325578354306 -0.00431656347322469 0.00714497640241636 -0.000335063787259514 -0.00680991288761293 0.00698887285316683 0.00145704352709668 -0.00513552991861757 -0.00803363328935652 -0.00830492955718604 -0.0084049121534588
437.0 -0.00488726530516407 -0.00911796724518567 -0.00423070192846584 0.00700261749357183 -0.000328281369136237 -0.00667433869066573 0.00683792288772781 0.00141036133945263 -0.005034667912399 -0.00786676391024346 -0.0081303862261358 -0.0082276165149979
438.0 -0.00479080624332159 -0.00893813642565604 -0.00414732532444947 0.00686446953575936 -0.000321740295103226 -0.00654273541370384 0.00669170354312644 0.00136526679631362 -0.00493666466989272 -0.00770471705427057 -0.00796091963635271 -0.00805549577606516
439.0 -0.00469722392434298 -0.008763507279156 -0.00406628570587875 0.00673036224978406 -0.000315468539438923 -0.006414898829044 0.00655010292360811 0.00132167855763863 -0.00484141890028148 -0.00754733138333817 -0.00779636640312886 -0.00788837288974464
440.0 -0.00460637437048966 -0.00859381698939794 -0.00398744382925196 0.00660009152836254 -0.000309464492092066 -0.00629063161218381 0.006412845087402 0.0012794771180779 -0.00474882508710828 -0.00739439768922392 -0.0076365065607629 -0.00772604026468686
441.0 -0.00451817375722842 -0.00842899818397925 -0.00391082019790749 0.00647358625931124 -0.000303675893676294 -0.00616990981018281 0.00627984620115072 0.00123882414456892 -0.00465877068659376 -0.00724581312213215 -0.00748124142531214 -0.00756838132766465
442.0 -0.00443258863502516 -0.00826880269397162 -0.00383621188191085 0.0063506933871588 -0.000298187920446832 -0.00605250760672966 0.00615112133013749 0.00119969126975753 -0.00457108616595193 -0.00710135976850569 -0.00733035522782716 -0.0074152002118265
443.0 -0.00434952415286955 -0.00811323376269483 -0.00376370363713741 0.0062313777853932 -0.000292909537863961 -0.00593846886403044 0.00602629977905799 0.00116178732959589 -0.00448592199348401 -0.00696110981861902 -0.00718388244715222 -0.00726650282625596
444.0 -0.00426895088859854 -0.0079622542443426 -0.00369330028096612 0.00611560196291722 -0.000287825903541714 -0.00582777734714147 0.0059053556774216 0.00112513710066517 -0.00440322462896216 -0.00682498884195929 -0.00704174864643284 -0.00712221458201095
445.0 -0.00419077606451819 -0.00781567034631992 -0.00362488784695037 0.00600322046873792 -0.000282944902720037 -0.00572027914012965 0.00578826115112616 0.001089840672956 -0.00432285491500634 -0.00669281296314196 -0.00690376994701982 -0.00698216607795461
446.0 -0.00411490339871787 -0.00767333378359866 -0.00355842707217813 0.00589411960826531 -0.00027823905718687 -0.00561588045027964 0.00567457973197292 0.00105558082629959 -0.00424484310316291 -0.00656452633743045 -0.00676986139087984 -0.00684624099368158
447.0 -0.00404126876884584 -0.0075351633661614 -0.00349389289191503 0.00578821659111683 -0.000273687428272393 -0.00551452814056537 0.00556453795338869 0.00102259696441158 -0.00416896702225721 -0.00643992069396475 -0.00663985309073751 -0.00671429696379068
448.0 -0.00396981975656105 -0.00740089895974733 -0.00343107832523517 0.00568536205368163 -0.000269371423399515 -0.00541599107439351 0.00545796132007085 0.000990820682384554 -0.00409520933586692 -0.00631891307325337 -0.00651361877204824 -0.00658619277055826
449.0 -0.00390049541301404 -0.00727045031299834 -0.00336995444800944 0.00558547425068096 -0.000265269876462417 -0.00532020363246273 0.00535475514878494 0.00096018959409279 -0.00402353200747482 -0.00620139769205111 -0.00639105461238034 -0.00646182175064444
450.0 -0.00383316732262695 -0.00714384374297783 -0.00331067618767133 0.00548850624718625 -0.000261244285097402 -0.00522726303580901 0.00525457472789956 0.000930526024679337 -0.00395389604789444 -0.00608732009246642 -0.00627211201521759 -0.00634113384501527
451.0 -0.00376780819172657 -0.00702094238786225 -0.00325313407635076 0.00539437565756379 -0.000257337367897468 -0.00513703981281153 0.00515735419218909 0.000901848644938185 -0.00388628623717906 -0.00597661342374015 -0.00615669803565838 -0.00622403050391964
452.0 -0.00370444278484332 -0.00690160786320491 -0.00319716501669555 0.00530302551335415 -0.000253638558578154 -0.0050493896796753 0.00506319063608606 0.000874140866259125 -0.00382065592451468 -0.00586918504744163 -0.00604471630571248 -0.00611041247395495
453.0 -0.00364297225638779 -0.00678588537427126 -0.00314291308613739 0.00521442648682983 -0.000250028447170712 -0.00496440332400352 0.00497200304215349 0.000847360670361019 -0.00375700535344375 -0.00576502608820198 -0.00593614147420188 -0.00600025291851443
454.0 -0.0035832680890419 -0.00667344400169273 -0.00309017589630775 0.00512835484664077 -0.000246544054960019 -0.00488181205651427 0.00488367207112028 0.000821611605912819 -0.00369508234867111 -0.00566384086076411 -0.00583070818950556 -0.00589329542514084
455.0 -0.00352527867707589 -0.00656413279380477 -0.00303885410831536 0.00504470511832823 -0.000243212689031651 -0.00480149211005377 0.00479781120665352 0.000796749021442875 -0.00363484927552523 -0.00556552566382552 -0.00572829440271897 -0.00578940799106032
456.0 -0.00346896289772182 -0.00645784978004442 -0.00298888687799127 0.00496340844715787 -0.0002400396737632 -0.00472336521269122 0.00471455139932003 0.000772712520062328 -0.00357631101911635 -0.00547002225935609 -0.00562882272647699 -0.00568850325265614
457.0 -0.00341426561716355 -0.00635467346758552 -0.00294040784819217 0.00488446820175986 -0.00023693022626459 -0.00464753662761595 0.00463382906103742 0.000749468583098289 -0.00351944583465049 -0.00537732007378924 -0.00553229698869288 -0.00559059930974741
458.0 -0.00336119241571176 -0.00625457149338345 -0.00289337907652377 0.00480788126439059 -0.00023390833073756 -0.00457397321014333 0.00455565512367803 0.000727061089317139 -0.00346429589906461 -0.00528744762733728 -0.0054387143080649 -0.00549568122055681
459.0 -0.00330968794291402 -0.00615743500995161 -0.00284774706644664 0.00473355869516756 -0.000230972748981831 -0.00450258997007351 0.00447977806243133 0.000705437907974107 -0.00341076647885161 -0.00520025948849979 -0.00534792764320024 -0.00540360058681756
460.0 -0.00325967518464314 -0.00606310123931521 -0.00280342605436784 0.00466138678016602 -0.000228124299144777 -0.00443326552293163 0.00440595679618712 0.000684448962653614 -0.00335879910072379 -0.00511563226884964 -0.00525981277688889 -0.00531423249279223
461.0 -0.00321107082610955 -0.005971379639739 -0.00276030881347283 0.0045912244958177 -0.000225380384189924 -0.0043658451924291 0.00433429040390342 0.000664075701482209 -0.00330828603128234 -0.00503340540851479 -0.00517421842646808 -0.00522741074040363
462.0 -0.0031638271243904 -0.00588216241524632 -0.00271833529077529 0.00452299439035118 -0.00022274705211266 -0.00430024935022277 0.00426483474399786 0.000644447339206508 -0.00325915725287611 -0.00495352536186168 -0.00509107641452693 -0.00514309343724217
463.0 -0.00311789038950747 -0.00579536010822653 -0.00267746971867755 0.00445662747948287 -0.000220212375458093 -0.00423641274345194 0.0041976234246773 0.000625752665192325 -0.00321126027350608 -0.00487583356098334 -0.00501026430804991 -0.00506114742229912
464.0 -0.00307323783345238 -0.00571102855598533 -0.00263779072251159 0.00439213676902218 -0.000217725576084856 -0.00417440852211852 0.00413239233537332 0.000607812794254534 -0.00316465729545947 -0.00480036967250666 -0.00493179185677723 -0.00498158177441117
465.0 -0.00302990624417265 -0.005629186800053 -0.00259928055586936 0.00432954836218705 -0.000215311943602497 -0.00411423552882354 0.00406882113670691 0.00059021589257225 -0.00311955986250406 -0.00472722204416912 -0.00485569319155359 -0.00490441087129356
466.0 -0.00298780296581094 -0.00554966026956294 -0.00256185730374634 0.00426873013900092 -0.000212973337811033 -0.00405575731352243 0.00400698266078012 0.000573001760937759 -0.00307578091062883 -0.00465617900534299 -0.00478179180571598 -0.00482947229692586
467.0 -0.00294690455821898 -0.00547235424237988 -0.00252544968415798 0.0042096286390624 -0.000210728183117037 -0.00399889877892303 0.00394690469815315 0.000556300057613775 -0.00303332117680396 -0.00458725773697073 -0.00471007931541688 -0.00475673580979748
468.0 -0.00290706795198627 -0.00539724906655844 -0.00249018111457067 0.00415215811738267 -0.000208445258378726 -0.00394371345124291 0.00388859670364822 0.000540391501881563 -0.00299196270330612 -0.00452028271034321 -0.00464042525426175 -0.00468610821040913
469.0 -0.00286828256923282 -0.00532422788255927 -0.00245594531332568 0.00409625502414873 -0.000206170545415137 -0.0038900833280412 0.00383201017337226 0.000525170735119197 -0.00295165635927262 -0.00445516356215771 -0.00457272364182775 -0.00461746874002207
470.0 -0.00283060118763039 -0.00525305586064743 -0.00242245467301664 0.0040418284202781 -0.00020407472962196 -0.00383775358346593 0.00377702309849057 0.000510393322142424 -0.00291244963086107 -0.00439181980925567 -0.00450686654741891 -0.00455069215609673
471.0 -0.00279395879067803 -0.00518358784929258 -0.00238962905861435 0.00398877326651709 -0.000202167564763468 -0.00378660758734583 0.0037237327819625 0.000496097421591192 -0.00287419229455303 -0.00433007901611986 -0.00444271107277414 -0.00448564605586817
472.0 -0.00275828309197692 -0.00511602083197442 -0.00235773773999739 0.00393715193444989 -0.00020027406531408 -0.00373688126581875 0.00367180601302967 0.000482231839511838 -0.00283699138788813 -0.00427008530477084 -0.00438037287845844 -0.00442244665111397
473.0 -0.00272354658189839 -0.00505054840383295 -0.0023269969699985 0.00388704990466323 -0.000198275521182996 -0.00368877370614634 0.00362110521621339 0.000468718305214138 -0.00280097964545285 -0.00421195168563513 -0.00431995032275888 -0.00436118288001695
474.0 -0.00268973509830956 -0.00498694029723671 -0.00229720270111942 0.00383833651341395 -0.000196264140833614 -0.00364207202388451 0.00357173423647307 0.00045568925336772 -0.00276599735886941 -0.00415552285201922 -0.00426129511177478 -0.00430171130301849
475.0 -0.0026568607581978 -0.00492500033795935 -0.00226813829387415 0.00379092993836289 -0.000194361628393865 -0.00359656958603898 0.00352373197805035 0.000443081374722224 -0.00273197686505093 -0.00410066062781133 -0.00420426782768903 -0.00424388529747583
476.0 -0.0026248764281697 -0.00486462753425375 -0.00223975044410099 0.00374474924135818 -0.000192561740436342 -0.00355218912823803 0.00347711846909775 0.000430836847203191 -0.00269884451511921 -0.00404725506357686 -0.00414875302989311 -0.00418759541756211
477.0 -0.00259369962042062 -0.00480572622749816 -0.00221202141434842 0.00369970908749725 -0.00019083797351183 -0.00350887631848061 0.00343189431636439 0.000419101543720108 -0.00266645079963233 -0.00399517677760314 -0.00409465247333499 -0.00413276106018528
478.0 -0.00256329757357287 -0.00474830539525403 -0.00218500029649497 0.00365579950937819 -0.00018914902743983 -0.00346665170566499 0.00338790457025635 0.000407829747373703 -0.00263484490050897 -0.00394444649820467 -0.00404198350793725 -0.00407936499003774
479.0 -0.00253361945830753 -0.00469235510341942 -0.00215873177109788 0.00361298626410268 -0.000187445014200689 -0.00342554042430349 0.00334491419977891 0.000396849453569873 -0.00260409580433968 -0.00389508945225841 -0.00399073080587103 -0.00402740318620889
480.0 -0.00250466336704598 -0.00463775379139092 -0.00213308842997774 0.00357120805578349 -0.000185786615583556 -0.00338541955959574 0.00330291380400009 0.00038623707906708 -0.00257410317165453 -0.00384701188412991 -0.00394080399335985 -0.00397679594773209
481.0 -0.00247650109679462 -0.00458461840062424 -0.00210811627711662 0.00353055947924176 -0.000184191970734592 -0.0033463665403601 0.00326203439746815 0.000375928132271056 -0.00254497546094055 -0.00380028197428276 -0.00389227299186938 -0.00392759443082381
482.0 -0.00244908712619971 -0.00453297516977708 -0.00208388751501895 0.00349103100926471 -0.000182598609149419 -0.00330843093131978 0.00322223183278276 0.000365907849853196 -0.00251666661666475 -0.00375487174728781 -0.00384510587031353 -0.00387977159973559
483.0 -0.00242237861283299 -0.00448279393925427 -0.00206041505431602 0.00345258863059579 -0.000180983104097428 -0.00327160428515944 0.00318350764225977 0.000356225884402332 -0.00248910440978398 -0.00371071828185506 -0.0037992619306848 -0.0038333038324191
484.0 -0.0023963146856502 -0.00443378747428684 -0.00203747264855511 0.00341505471807504 -0.000179422670970306 -0.00323562995247471 0.00314563942568888 0.000346722938627092 -0.00246228076794063 -0.00366771640666166 -0.00375459407105231 -0.00378801400226845
485.0 -0.00237082519236014 -0.00438579334876961 -0.00201497293623061 0.00337830871751739 -0.000177926978742579 -0.00320038066044587 0.00310862913648276 0.000337469356053083 -0.00243610420058525 -0.00362573919979749 -0.00371098289497663 -0.00374378181175742
486.0 -0.0023458837219864 -0.00433882013148831 -0.00199293887018442 0.00334235164202497 -0.000176474319416173 -0.00316587822305896 0.00307263304222298 0.000328686693932894 -0.00241040630939731 -0.00358468735749895 -0.0036683717883427 -0.00370058899837373
487.0 -0.00232156401283743 -0.00429296927242884 -0.00197140652636651 0.00330726649606138 -0.0001750806884164 -0.00313218724158969 0.00303765395948442 0.000320331323437762 -0.00238524110798799 -0.00354461164820919 -0.00362679953294588 -0.00365846012401125
488.0 -0.0022978312468262 -0.00424834151805318 -0.0019505109233709 0.00327308630698361 -0.000173660192732042 -0.00309942345610028 0.00300355263211367 0.000312278408317708 -0.00236071403388604 -0.00350560128301573 -0.00358633461326267 -0.00361745150071416
489.0 -0.00227467720325071 -0.00420481406358846 -0.00193013719606562 0.00323974559457431 -0.000172268563973001 -0.00306747178061921 0.00297022825853576 0.00030439769574268 -0.00233683569958196 -0.00346760029770117 -0.00354691524681968 -0.00357749993149907
490.0 -0.00225204913068087 -0.00416232854028772 -0.0019102795824417 0.0032071863895185 -0.000170883062607031 -0.00303630207976789 0.00293754161060673 0.000296595930267803 -0.00231359216070975 -0.00343056047378423 -0.00350848051598822 -0.00353853891860244
491.0 -0.00222995868783099 -0.00412081608405847 -0.00189085748520397 0.00317538855271389 -0.000169550690603093 -0.0030058357644925 0.00290543556859511 0.000288803269681249 -0.00229106357346865 -0.00339452491518628 -0.00347104272740726 -0.00350056819210211
492.0 -0.00220838761700174 -0.00408025579903323 -0.00187186822783716 0.00314432230867771 -0.00016825877016194 -0.00297606148826125 0.00287400687723377 0.000281194332788113 -0.00226911653308676 -0.00335940906948972 -0.00343454999338122 -0.00346354394561638
